1.0432895	0.504302203
1.2833359	0.529039789
1.5333244	0.574858179
1.7933464	0.551626196
2.0333762	0.540563583
2.2433738	0.525813272
2.51399	0.534417068
2.7439872	0.549045069
2.954002	0.580959509
3.2040193	0.57098611
3.4440379	0.57148267
3.6940547	0.598643218
3.9340757	0.623042538
4.2340925	0.63250735
4.4141059	0.670367006
4.6241221	0.689296723
4.8641387	0.691877859
5.1041543	0.683273585
5.3441719	0.683273407
5.5842041	0.705644832
5.7242007	0.74264382
5.9642173	0.765015204
6.1963772	0.772759248
6.4363948	0.741783233
6.6764119	0.765875693
6.9164294	0.78136403
7.1664458	0.757271556
7.3964636	0.732318349
7.6364792	0.743504345
7.8764977	0.720272588
8.1365432	0.725434693
8.3865381	0.726294917
8.6265693	0.712528223
8.8665678	0.723713761
9.1066113	0.697040202
9.3466303	0.656599289
9.586619	0.622181951
9.82664	0.593787501
10.0666541	0.601531672
10.3066702	0.572277028
10.5566885	0.579160417
10.796732	0.598089926
11.0267243	0.601531586
11.2667658	0.59464798
11.5067844	0.593788066
11.7267725	0.561951757
11.968033	0.544742894
12.2080486	0.542161773
12.4480671	0.535278641
12.6880856	0.532696904
12.9344066	0.550766103
13.1774725	0.565393687
13.4362814	0.564533508
13.6963147	0.586904567
13.9262885	0.61874082
14.1563331	0.593787994
14.4056877	0.565393509
14.6265981	0.545603612
14.8766438	0.545603181
15.1166374	0.536998973
15.3666479	0.530975992
15.5766793	0.541301163
15.8179715	0.536998987
16.0605447	0.536138377
16.290564	0.56711404
16.5405789	0.551625976
16.7805959	0.53011473
17.020614	0.553347102
17.2606306	0.534417293
17.5031114	0.500000204
17.7431324	0.506884274
18.0031476	0.52237198
18.2031621	0.573137856
18.4431811	2.256154927
18.6831981	9.404674683
18.9235749	16.54803111
19.1835935	23.68880617
19.4236106	30.84506838
19.6636277	37.97810281
19.8923556	43.59418052
20.1424013	47.42485137
20.3823959	50.11458177
20.6261788	52.15640106
20.8662506	53.8738344
21.1062012	55.49317988
21.3462564	56.92581074
21.5862495	57.8241056
21.8262788	58.37564504
22.0662856	57.03508044
22.3063422	50.10511425
22.5463036	43.09339939
22.7863226	36.05157906
23.0163355	28.94006229
23.2463533	21.81907624
23.4863708	16.19611403
23.746388	12.36974287
23.9764042	9.705827069
24.2164213	7.648518912
24.4664695	5.935387885
24.7064841	4.308299352
24.9465016	2.857600678
25.1865207	1.927467128
25.4265358	1.329462998
25.6665362	0.955172618
25.9065694	0.745225857
26.1511436	0.614438772
26.3911611	0.50000004
26.6312065	0.499999935
26.8711967	0.499999836
27.1112138	0.500000016
27.3512592	0.499999912
27.6012604	0.499999868
27.8312655	0.500000071
28.0713094	0.499999965
28.311326	0.502581157
28.5513421	0.499999823
28.7913401	0.529254294
29.0313762	0.508604075
29.2713933	0.510324815
29.5113982	0.500000214
29.771407	0.519790854
29.9814164	0.530115597
30.261436	0.509464803
30.4914543	0.527534476
30.7314958	0.500000093
30.9614754	0.500000155
31.1943866	0.511185499
31.4444083	0.505163063
31.6744202	0.507743518
31.9144373	0.514627409
32.1544548	0.506883782
32.3944445	0.500000176
32.6444614	0.537859491
32.8844975	0.559370315
33.1245102	0.569695702
33.3745329	0.546463723
33.6045336	0.534418048
33.8445482	0.536139204
34.0745655	0.557649668
34.324598	0.571417001
34.5745987	0.585184146
34.7746142	0.58518376
35.0346465	0.592927911
35.2746762	0.597229678
35.5147026	0.585183459
35.7546991	0.59636919
35.9947167	0.589485843
36.2279587	0.553347171
36.4779609	0.530976281
36.7179785	0.531836454
36.9579955	0.538720152
37.1980287	0.542161762
37.4380297	0.53699922
37.6680465	0.512046736
37.9180638	0.499999998
38.1380798	0.49999998
38.3980984	0.512046113
38.6381297	0.506022772
38.8681303	0.499999965
39.1181496	0.520650575
39.3481649	0.505162679
39.5981867	0.499999767
39.8382067	0.499999799
40.0782174	0.500000146
40.3182643	0.507743855
40.5482532	0.499999786
40.7977158	0.516348048
41.0404577	0.530115015
41.2805153	0.510325133
41.5204649	0.517208648
41.7605001	0.529254562
42.0005284	0.502581237
42.240545	0.523231506
42.4873014	0.523231694
42.7173191	0.500000216
42.9673135	0.510325824
43.2073267	0.509465365
43.4373425	0.537859664
43.6773728	0.569696049
43.9125449	0.543882764
44.1457263	0.547324258
44.3857424	0.516348351
44.6268645	0.52065044
44.8668811	0.529254596
45.1311904	0.545603245
45.3711791	0.523231916
45.5999237	0.522371503
45.8299405	0.500000085
46.0694234	0.499999867
46.3394447	0.499999954
46.5894743	0.512046144
46.829484	0.519790141
47.0595047	0.511185889
47.299511	0.501720958
47.539922	0.531836345
47.7838711	0.547324281
48.003892	0.580020911
48.2539254	0.585183046
48.5039418	0.576578573
48.7439491	0.54560288
48.9839774	0.543021576
49.2239715	0.541300919
49.4536887	0.53871964
49.7137107	0.531836716
49.923724	0.542161911
50.1537418	0.509465006
50.4020006	0.500000463
50.6420157	0.499999966
50.8820333	0.500000158
51.1220523	0.500000162
51.3720687	0.500000084
51.5920837	0.500000176
51.8320998	0.500000039
52.0721203	0.505162489
52.3121354	0.514627139
52.5698139	0.506022942
52.8140738	0.504302549
53.0353659	0.520650811
53.2753834	0.534417824
53.5154	0.526673688
53.7454183	0.532696999
53.9954332	0.530975929
54.2489832	0.555068241
54.4889949	0.567974745
54.7290129	0.571416354
54.9690515	0.57657909
55.2090686	0.557649442
55.4290572	0.55764927
55.6790736	0.558509855
55.9290968	0.548184634
56.1765903	0.555928444
56.4165995	0.547323738
56.6466432	0.558509632
56.8866431	0.549905291
57.1166492	0.56109089
57.376681	0.567974567
57.6167	0.57829968
57.8503589	0.542161095
58.090376	0.533556817
58.3303916	0.520650185
58.5704111	0.50172065
58.8003981	0.500000015
59.0320688	0.500000015
59.2720761	0.516348288
59.5321211	0.524092321
59.762111	0.542161642
60.0021266	0.559370387
60.2421437	0.539580597
60.5021686	0.532697118
60.7322079	0.516348948
60.9822096	0.519790431
61.20221	0.518930115
61.4422285	0.547324489
61.6822446	0.557649252
61.9322663	0.557649124
62.1622817	0.561951579
62.4022973	0.566253652
62.6423168	0.59636901
62.8823338	0.580881307
63.1323492	0.570556208
63.3623641	0.557649389
63.6023831	0.578299963
63.8624296	0.602392549
64.1024437	0.600671524
64.3424622	0.604113312
64.5824803	0.600671545
64.8224973	0.618740647
65.0625124	0.594648188
65.30253	0.596369386
65.572521	0.61788027
65.7925571	0.667785789
66.0202665	0.839012809
66.2682502	1.109190553
66.5062125	1.563501726
66.7362254	2.228620183
66.9862428	3.090779243
67.2362606	4.077701057
67.4762904	5.104204146
67.7062954	6.101451392
67.9363269	6.985982252
68.1763376	7.701006192
68.4163718	8.249105928
68.6363609	8.743857166
68.8963824	9.119868205
69.1364107	9.429625938
69.376442	9.62150328
69.6064309	9.666246636
69.8564492	9.553528831
70.0964668	9.259259274
70.3264801	8.765367875
70.5765043	8.036577235
70.8165444	7.170976405
71.0585282	6.270097957
71.2885391	5.406217819
71.5385594	4.650753331
71.7786019	4.042423695
72.018617	3.570904046
72.2586326	3.196613321
72.4986521	2.884274285
72.728639	2.619258334
72.9886743	2.461798547
73.2174252	2.322407733
73.4674362	2.201946693
73.6874542	2.080624987
73.9274678	1.964466
74.1674854	1.859492281
74.4775059	1.748495622
74.647518	1.623732062
74.8975437	1.539408927
75.1511328	1.43701731
75.3863308	1.333763922
75.6329509	1.253743414
75.8733027	1.177164766
76.1125994	1.105748348
76.3532005	1.06186637
76.5949668	0.96979983
76.8365787	0.925916648
77.0754022	0.884616207
77.3173107	0.868267854
77.5622256	0.826966446
77.8222442	0.811478761
78.0222591	0.797711808
78.2622757	0.783944749
78.5022923	0.767595923
78.7423093	0.740922852
78.9823274	0.727155828
79.2126477	0.704784093
79.4726922	0.660902359
79.7126795	0.66434401
79.9634246	0.638531001
80.1934394	0.651437836
80.4334589	0.621322149
80.6735048	0.605834356
80.9230393	0.571416707
81.156249	0.561952006
81.3862722	0.546464152
81.6562818	0.521510936
81.8863005	0.503441671
82.1163325	0.500000166
82.3563505	0.519790349
82.6163769	0.548185089
82.8563823	0.561951899
83.0764012	0.559370563
83.3364042	0.530115228
83.5264164	0.524952864
83.7864604	0.501721043
84.0164508	0.499999782
84.2664692	0.499999798
84.5065121	0.500000137
84.736502	0.519790381
84.9865194	0.510325444
85.2265658	0.518929861
85.4665902	0.512906784
85.7065994	0.540440863
85.946615	0.548184805
86.1891384	0.528394791
86.429155	0.543882941
86.6691725	0.554207927
86.909216	0.579160574
87.149235	0.59292777
87.3792254	0.598950755
87.6292691	0.633368231
87.8792586	0.641112264
88.1192796	0.668646419
88.3492915	0.654019033
88.5993103	0.673809062
88.8393474	0.687576122
89.079344	0.717691255
89.3093749	0.698761134
89.5593781	0.667785817
89.7794034	0.659181483
90.0194122	0.630786947
90.2794332	0.619601262
90.5194547	0.598090245
90.7494754	0.609275768
90.9894822	0.615298681
91.2318829	0.615299028
91.4818963	0.60411353
91.7219134	0.580881612
91.9619461	0.605834072
92.2019485	0.612717459
92.4419641	0.595508759
92.6820085	0.576579153
92.9220031	0.600671444
93.1620168	0.620461381
93.4020602	0.645414247
93.6220494	0.655739279
93.8820953	0.657460292
94.1221148	0.666925486
94.3721073	0.652298315
94.612119	0.648856186
94.8521365	0.642833344
95.09218	0.64799559
95.332197	0.647995616
95.5722146	0.638531068
95.8071658	0.646274695
96.0555991	0.640251684
96.295644	0.66520424
96.5356283	0.649716284
96.755618	0.639391292
97.0156356	0.623903463
97.2556532	0.608415456
97.505671	0.638530824
97.725687	0.666064933
97.9757571	0.670367239
98.2257442	0.664344198
98.4557683	0.646274969
98.6957834	0.636809835
98.935802	0.636809906
99.1957907	0.625624182
99.385804	0.600671255
99.6358306	0.602392024
99.8758398	0.57916037
100.1058547	0.591206539
100.3559038	0.587764827
100.5959189	0.586044434
100.8459348	0.605834112
101.0797731	0.586904653
101.3198009	0.572276922
101.5598072	0.558509867
101.7998243	0.561091314
102.0398678	0.557649501
102.2768204	0.566254161
102.5068108	0.573998225
102.7468283	0.561952225
102.9868429	0.549905945
103.22686	0.579161007
103.4668776	0.580882009
103.7175523	0.561091858
103.9675413	0.566254329
104.2075657	0.590346305
104.4475754	0.584323375
104.6875969	0.58002093
104.9276271	0.573137762
105.1699272	0.592927781
105.403222	0.599811264
105.6432381	0.598950877
105.8832556	0.600671824
106.1232453	0.591206787
106.3719675	0.604973893
106.6019818	0.609276087
106.8520109	0.610997138
107.0920441	0.630786831
107.3620215	0.624763565
107.5720694	0.625623831
107.8120582	0.604113419
108.0520742	0.612717388
108.2920869	0.621322098
108.5121029	0.619600836
108.772122	0.615298971
109.012166	0.616159119
109.2521586	0.647135255
109.4721707	0.638530456
109.7322196	0.646274847
109.9822081	0.660902304
110.2122538	0.669506546
110.432239	0.648856197
110.6828638	0.616159388
110.9428756	0.628205521
111.1772985	0.634228684
111.4173439	0.64111167
111.6530306	0.653158092
111.9030363	0.639391027
112.1430631	0.627345098
112.3730804	0.648855719
112.6230889	0.64283284
112.8630879	0.635088843
113.1131077	0.647135224
113.3531311	0.65057694
113.5831469	0.625624232
113.8231679	0.647995439
114.0531744	0.636809906
114.3132092	0.635949432
114.5532077	0.622182348
114.7832264	0.623903255
115.003239	0.638530763
115.2532593	0.612717621
115.4932763	0.621322027
115.7332929	0.647995525
115.9633361	0.61529924
116.20334	0.622182368
116.4533451	0.624763764
116.6933622	0.623903366
116.9234039	0.615298925
117.1733958	0.615299372
117.4034097	0.598090399
117.6532574	0.624764054
117.8932784	0.627345291
118.1332911	0.63336848
118.3733125	0.623903717
118.6133501	0.618741059
118.8533423	0.623903656
119.0933725	0.642833197
119.3233957	0.624764277
119.5734213	0.640252152
119.8134081	0.643693833
120.053455	0.618741114
120.3034547	0.637670955
120.5334622	0.646274979
120.7634756	0.639391464
121.0134959	0.623903478
121.2588789	0.607555136
121.4989238	0.609275772
121.7389551	0.636809887
121.9789716	0.627345037
122.218974	0.612717789
122.4589984	0.597230062
122.6989818	0.567114685
122.9389984	0.562812348
123.1790291	0.544743072
123.4290338	0.550766195
123.6690762	0.549045385
123.9090977	0.525813283
124.1335569	0.528394511
124.4335781	0.543882849
124.6035913	0.562812465
124.8536081	0.584323503
125.0936252	0.583462891
125.3336418	0.586043931
125.5736593	0.589485316
125.8136759	0.582601761
126.0682792	0.596368978
126.3021561	0.608415223
126.562183	0.634228415
126.7721733	0.666064703
127.0221887	0.650576772
127.2522055	0.651437297
127.4922216	0.647995616
127.7322401	0.660902014
127.9722567	0.649716298
128.2122738	0.652297669
128.4522909	0.619601201
128.7023077	0.630786484
128.9323279	0.607554942
129.1723421	0.6023924
129.4323612	0.631647559
129.6423744	0.629926168
129.8823915	0.614438415
130.1324094	0.610996522
130.3624271	0.594648428
130.7724544	0.601531729
130.8824638	0.60841566
131.0941711	0.606694967
131.3341843	0.60755535
131.5742023	0.610136816
131.8142189	0.597229793
132.0642387	0.608415731
132.2942526	0.600671377
132.5342706	0.590346191
132.7742872	0.604113358
133.0143057	0.569695806
133.2643333	0.567975037
133.5243583	0.606694607
133.7643851	0.61788051
134.0043768	0.6101365
134.2444056	0.615299297
134.4670115	0.654019121
134.7170283	0.770178222
134.9470554	0.899243892
135.187072	1.190931814
135.4270788	1.640941342
135.677125	2.291432795
135.9226747	3.196613529
136.1627181	4.421877284
136.4027107	5.96722389
136.6427532	7.928162224
136.8827718	10.18595179
137.1212996	12.71047657
137.3613294	15.3752526
137.6013455	18.05379681
137.8413357	20.55078848
138.0813542	22.68897564
138.3213854	24.39178296
138.5614299	25.71427564
138.8014318	26.54287656
139.0314344	26.97481861
139.281441	26.97567997
139.5214849	26.57385491
139.7615015	25.72029925
140.0042204	24.47610612
140.2409008	22.74318512
140.4809418	20.6962023
140.7209349	18.30073885
140.9609534	15.72975298
141.1983894	13.1673695
141.4421347	10.76416619
141.6821762	8.651790423
141.9221923	6.882730033
142.1622108	5.456985791
142.4026927	4.392622958
142.6427068	3.533044938
142.8827248	2.913528968
143.1227409	2.458357556
143.3627595	2.109880306
143.6027863	1.819911785
143.8427926	1.614267716
144.0627808	1.417226868
144.3216171	1.267510768
144.5616337	1.142747839
144.7916221	1.026588781
145.0416541	0.941405508
145.2816707	0.888058132
145.5243793	0.850198619
145.7643978	0.800292765
146.0044154	0.738341502
146.2444339	0.743504401
146.4844373	0.722854346
146.7244378	0.673808945
146.9644617	0.646275019
147.1944902	0.648856217
147.4445183	0.656600282
147.6845402	0.631647181
147.9345371	0.632507966
148.1645426	0.651437303
148.4045685	0.654018524
148.6445748	0.628205536
148.8846065	0.620461589
149.1146096	0.614438207
149.3646514	0.63939113
149.6146443	0.665204448
149.8546629	0.641972606
150.0946785	0.644553905
150.3247211	0.638530965
150.5747126	0.6695067
150.8047548	0.646274872
151.0447601	0.608415639
151.2806233	0.641112321
151.5206384	0.622182505
151.7706558	0.623042827
152.0106978	0.633368185
152.2407009	0.638530976
152.490705	0.646274989
152.7307221	0.639391149
152.9707401	0.617880687
153.2207555	0.587764999
153.4407994	0.568835612
153.6907894	0.56711434
153.9217558	0.562812301
154.1617739	0.540441025
154.4017914	0.551626369
154.651821	0.550766311
154.8918253	0.527534221
155.1418427	0.522371643
155.3718609	0.507744502
155.6118751	0.499999778
155.8318901	0.50602312
156.0715352	0.49999979
156.3132751	0.505162419
156.5532922	0.518069025
156.7933088	0.518068922
157.0533616	0.542161346
157.2933557	0.532696538
157.5233803	0.564532715
157.7733786	0.565393279
158.0034242	0.558509821
158.253425	0.560230991
158.483431	0.562812036
158.7334493	0.578300119
158.9734654	0.574858341
159.2035096	0.61271756
159.453524	0.622182128
159.6935278	0.629065505
159.9335493	0.650576517
160.1735507	0.660901606
160.4235823	0.660902124
160.6535834	0.639390985
160.8936019	0.62476363
161.1266221	0.59550833
161.3766707	0.617019739
161.6066958	0.629926218
161.8567044	0.666064672
162.1066924	0.684133901
162.3367111	0.675529682
162.5767438	0.665204471
162.8167413	0.634228209
163.0567907	0.636809748
163.3067807	0.628205723
163.5268211	0.598950458
163.7768106	0.576579024
164.0168301	0.57829988
164.2568452	0.593787765
164.4977709	0.596368839
164.7361741	0.595508488
164.9761794	0.567974644
165.2079777	0.546463311
165.4479928	0.510325341
165.7101116	0.499999993
165.9301281	0.526673623
166.1801405	0.524092267
166.4201552	0.530115466
166.6424336	0.525813368
166.8824507	0.539580249
167.1124831	0.570555902
167.3624848	0.559370272
167.6015234	0.567114118
167.8506756	0.583462548
168.1006915	0.587764733
168.3407076	0.598090258
168.5607246	0.614438571
168.8007417	0.640251656
169.0407587	0.644553673
169.2807743	0.629926429
169.5207914	0.63336804
169.7808164	0.642832649
170.0320654	0.632507393
170.2693528	0.615298637
170.4993705	0.601531929
170.7593916	0.579160108
170.9894216	0.608415053
171.2159208	0.608415082
171.4659372	0.583462542
171.7059582	0.580021019
171.9382384	0.569695798
172.1913769	0.56453285
172.4313978	0.547324461
172.6614268	0.579160368
172.9190467	0.586044197
173.1622186	0.575718667
173.3722329	0.598090035
173.6322935	0.619600874
173.8722705	0.640251366
174.082298	0.649715925
174.3523051	0.668645623
174.5823332	0.672948007
174.8223517	0.667785179
175.0523548	0.676390043
175.3123998	0.683273186
175.5623903	0.686715075
175.7624135	0.703063383
176.0324525	0.72113249
176.2424374	0.686715197
176.5124582	0.700482084
176.722472	0.689296461
176.9924914	0.69187771
177.2325354	0.693598565
177.4725397	0.662622612
177.712571	0.661762388
177.9625595	0.647995374
178.1925767	0.635949176
178.4326075	0.659181069
178.6726109	0.644553479
178.9126426	0.658320764
179.1526719	0.651436999
179.3926631	0.631646975
179.632706	0.604112795
179.872725	0.6015317
180.1127504	0.61701952
180.362734	0.611857018
180.5927474	0.582602165
180.8328026	0.587764438
181.0727815	0.591206271
181.308219	0.584322751
181.5582286	0.586043358
181.7782485	0.591206409
182.0310556	0.561091138
182.2710595	0.581741723
182.5210612	0.561951912
182.7610773	0.563672706
183.0011217	0.554207812
183.2411398	0.560230721
183.4711365	0.572276868
183.7111746	0.536998975
183.9611675	0.544742613
184.2011924	0.572276839
184.4312126	0.541300997
184.6712429	0.548184634
184.9112609	0.542161532
185.1560648	0.526673739
185.396097	0.49999991
185.6360999	0.512046261
185.8761311	0.514627342
186.1224516	0.516348004
186.3556184	0.545602816
186.5956643	0.573997423
186.835694	0.595508501
187.075672	0.605833727
187.3157135	0.617879889
187.5604118	0.638530632
187.790454	0.638530596
188.0304579	0.672948127
188.2704608	0.697040484
188.510492	0.716830446
188.7641505	0.7452251
189.0041676	0.755550437
189.2341981	0.755550086
189.4742034	0.731458131
189.7142454	0.716830572
189.9542625	0.697900697
190.1942678	0.700482139
190.4342697	0.692738415
190.6743156	0.703923566
190.914318	0.691016867
191.1543488	0.655739091
191.3943522	0.625623618
191.6343702	0.590345541
191.874376	0.580020179
192.1243895	0.574857769
192.3544346	0.576578799
192.594438	0.568834631
192.8344712	0.560230261
193.0744863	0.586903938
193.3144892	0.606693839
193.5545199	0.629065218
193.794537	0.601531139
194.0239697	0.602391731
194.2688684	0.581741324
194.5236789	0.591206122
194.7537065	0.602391806
194.9937231	0.609275616
195.2337308	0.632507168
195.4737474	0.626484041
195.7237613	0.635948921
195.9574066	0.627344586
196.1973982	0.638530153
196.4374402	0.650576616
196.6774558	0.65143676
196.9274453	0.637670177
197.157465	0.60583395
197.3922716	0.610996238
197.6322818	0.599810467
197.8822913	0.589485526
198.1223113	0.598950258
198.3498756	0.616158694
198.5999042	0.612717103
198.83991	0.611856589
199.0799275	0.602391893
199.3199441	0.592066789
199.5599622	0.573137137
199.7999787	0.57141621
200.0399968	0.562811926
200.2800134	0.548184231
200.520029	0.545603186
200.760046	0.567113883
201.000067	0.566253811
201.2400816	0.567114285
201.4800997	0.601531629
201.7201172	0.598950222
201.9601348	0.570555884
202.2001646	0.589485435
202.440167	0.572276663
202.6822637	0.592066459
202.9222783	0.60755442
203.1622958	0.604112601
203.4023124	0.595507854
203.64676	0.612716712
203.8819296	0.621321337
204.1219472	0.631646369
204.3619814	0.617879854
204.6019813	0.617019451
204.8419974	0.605833477
205.0820213	0.57485782
205.3320367	0.562811733
205.5620736	0.573997489
205.8020681	0.552486558
206.0420823	0.559370027
206.2748561	0.568834999
206.5148854	0.574858055
206.7569874	0.576578818
206.9969947	0.608415026
207.2370123	0.59292712
207.4870565	0.572276506
207.7170454	0.566253134
207.9670638	0.557648886
208.2070808	0.559369905
208.4471004	0.575718279
208.687116	0.6092755
208.927132	0.62218208
209.1671491	0.62906596
209.3971928	0.665203987
209.6371971	0.667785285
209.8872013	0.639390992
210.1272286	0.652297859
210.3672403	0.678971087
210.60725	0.661762397
210.8472686	0.680692207
211.0872856	0.719411949
211.3273017	0.758991855
211.5673569	0.807176191
211.8173415	0.840733284
212.0473617	0.875150958
212.2873695	0.860523297
212.5274056	0.880313423
212.767432	0.89580176
213.0074217	0.890638537
213.2474432	0.921614143
213.4974605	0.954310641
213.7274876	0.941404177
213.9774932	0.968078037
214.2175254	0.972379691
214.4575283	0.967217607
214.6975693	0.950869412
214.9475593	0.928497957
215.177603	0.936242257
215.407608	0.913871233
215.6576141	0.913010715
215.8976273	0.91301048
216.1376443	0.935381854
216.3722148	0.925056276
216.6122455	0.933660133
216.842234	0.952590086
217.1022594	0.954310834
217.3322972	0.944845751
217.5723128	0.915591128
217.8123328	0.932799817
218.0523343	0.953450905
218.3023531	0.959473757
218.5223578	0.995612715
218.7823711	0.969799029
219.0124162	1.005077233
219.2724055	0.978403582
219.4924235	1.000774936
219.7324659	0.977543093
219.9824765	0.982706087
220.2124869	0.99647296
220.4625072	0.976682762
220.7025213	0.963776191
220.9325381	0.974961499
221.1811376	0.982705492
221.4311061	1.003356235
221.6611214	0.993890973
221.8811359	1.031750248
222.1411682	1.024006162
222.3812004	1.072190917
222.6211955	1.083376677
222.8612351	1.144467523
223.1012262	1.181466297
223.3412663	1.293323584
223.5912577	1.446481636
223.821275	1.608243962
224.0412969	1.800121729
224.301335	2.090949674
224.5413242	2.463519848
224.7813569	2.880832059
225.0213857	3.366119294
225.2613759	3.992517868
225.5014199	4.704960581
225.7514201	5.498284543
225.9814315	6.353559896
226.225993	7.27422922
226.4560303	8.200060128
226.6967311	9.13535683
226.9367604	9.971701749
227.1867787	10.70307422
227.4267694	11.34582253
227.6667977	11.87671209
227.9168038	12.21056116
228.1325941	12.37318498
228.382654	12.37060304
228.6226574	12.17700325
228.8626739	11.79497078
229.1034124	11.23052227
229.3396172	10.55249812
229.5796191	9.766057497
229.8196504	8.881527303
230.0696428	7.970322896
230.2996708	7.023842004
230.5396884	6.090266752
230.7823642	5.232409249
231.022393	4.423597771
231.2623998	3.710294615
231.5124245	3.124336826
231.7424447	2.597748416
231.9861787	2.211411736
232.2362049	1.898211861
232.4662358	1.653846824
232.706226	1.481759239
232.9449992	1.375926019
233.1650118	1.270091983
233.3986942	1.239976526
233.6601732	1.227070154
233.9001751	1.293324495
234.14022	1.394855287
234.3975603	1.570384699
234.6227448	1.83626014
234.8727656	2.188179154
235.1028063	2.651955206
235.3428102	3.301586509
235.5828385	4.175791672
235.8228443	5.3442665
236.0628609	6.865520323
236.2977149	8.779135084
236.5377593	11.0885507
236.7777534	13.90734512
237.0177661	17.17528936
237.2678015	20.95777517
237.507801	25.23329231
237.7478244	30.04142006
237.9878532	35.29009162
238.2178519	40.82615163
238.4678687	46.56097542
238.7078868	52.31300159
238.9479058	57.7879695
239.1879204	62.74839717
239.4179636	66.88710108
239.6679541	69.94595559
239.9079716	71.75287935
240.1480068	72.27344373
240.3880058	71.53691223
240.6280238	69.68266847
240.8680409	66.84924684
241.108056	63.15193438
241.3504977	58.6828191
241.5905265	53.53653619
241.8205883	47.9092749
242.0605741	41.93697399
242.3005701	35.77795649
242.5505811	29.71444865
242.7905987	23.91165717
243.0306153	18.62254479
243.2706338	14.08545668
243.5006814	10.37438955
243.7506679	7.543547534
243.9906874	5.477632933
244.2307025	4.024352674
244.4707191	3.014199368
244.7107391	2.328430259
244.9507533	1.876701195
245.1907708	1.56178055
245.4307874	1.359577445
245.6708045	1.216744621
245.9208218	1.135003222
246.1508611	1.058423759
246.3935614	0.987007469
246.6283987	0.947427939
246.8683982	0.921614566
247.1084162	0.881173891
247.3484313	0.852779218
247.5884494	0.844175036
247.8284826	0.831268287
248.0684835	0.837290916
248.3085113	0.841593228
248.5585585	0.834710268
248.7885337	0.828687374
249.0385921	0.842454053
249.2685688	0.860523354
249.5086186	0.847616467
249.7386017	0.827826392
249.9886186	0.834710268
250.2286356	0.855360761
250.4686512	0.829547762
250.7286767	0.833850003
250.9586866	0.822663978
251.198733	0.793409319
251.4287224	0.796850949
251.6687385	0.794269742
251.9087663	0.800292686
252.1487722	0.783944729
252.3887892	0.785665412
252.6288073	0.78050279
252.8688234	0.776200513
253.0988387	0.783944191
253.3388567	0.7916886
253.5788733	0.777921104
253.8288921	0.746085181
254.058906	0.726294653
254.318927	0.728876182
254.5589705	0.747805722
254.7889614	0.74522457
255.048979	0.726294725
255.268994	0.709946311
255.5090111	0.691877469
255.7590304	0.692737957
255.9890438	0.682412858
256.2437673	0.68069206
256.4737552	0.653158174
256.713762	0.617880352
256.9537781	0.608415493
257.1937962	0.595508714
257.4475671	0.601531719
257.687571	0.626484377
257.9276144	0.614437979
258.1576039	0.6041128
258.3876304	0.586904054
258.6476388	0.605833798
258.8748531	0.609275565
259.1248631	0.596369223
259.3548872	0.589485282
259.594894	0.62132177
259.8349111	0.591206559
260.0892577	0.622182243
260.3292856	0.638530636
260.5692758	0.645413998
260.8093075	0.656599804
261.0493192	0.668646059
261.2768321	0.643692979
261.5168487	0.641111579
261.7568784	0.63164673
261.9968833	0.646274085
262.2369101	0.654018109
262.4769169	0.646274207
262.716934	0.664343564
262.9569501	0.704783964
263.2069953	0.740061746
263.4369955	0.78910712
263.6770018	0.820942992
263.9170169	0.90612647
264.1751788	1.074772291
264.4098709	1.287300206
264.6498875	1.554036745
264.888908	1.930908529
265.1389068	2.435985423
265.372487	3.018502134
265.6025111	3.746432417
265.8525138	4.580196938
266.092526	5.568840116
266.3325704	6.655573346
266.5725626	7.854163571
266.8125787	9.12330955
267.0625946	10.48022154
267.2926685	11.84831787
267.5326294	13.14843842
267.7726455	14.3022856
268.0126787	15.30555919
268.2527138	16.12985618
268.4927065	16.7089315
268.7327152	16.98599315
268.9727318	17.0634322
269.2127479	16.82336849
269.4527649	16.34754638
269.6927977	15.66608004
269.932802	14.80736336
270.172845	13.73439657
270.4128337	12.54182943
270.6528796	11.2554745
270.8928673	9.91921495
271.1328908	8.56574572
271.3701415	7.299180047
271.6101596	6.112636925
271.8501693	5.037090589
272.0901937	4.103515795
272.3301961	3.334283195
272.5702415	2.671745521
272.8102439	2.179574892
273.0602681	1.814748842
273.2902957	1.515317029
273.5303083	1.28557979
273.7703259	1.13156122
274.0203154	0.99217032
274.2556727	0.875150789
274.4956644	0.793409004
274.7357073	0.776200635
274.9856988	0.714249025
275.2157141	0.675529303
275.4482176	0.642832612
275.6882626	0.621321656
275.9282889	0.605833731
276.1782642	0.598089713
276.4082962	0.605833594
276.6482991	0.613577583
276.9057459	0.620461031
277.135792	0.611856747
277.3757939	0.593787584
277.6158237	0.600671002
277.8558422	0.601531551
278.0958314	0.592066438
278.3358768	0.563672014
278.5758783	0.55334724
278.8258853	0.561091035
279.0559134	0.588625043
279.2959192	0.595508628
279.5459468	0.594648179
279.7759636	0.588625027
280.0159953	0.596368929
280.2559982	0.589485216
280.496027	0.596368685
280.7260169	0.580880937
280.9760499	0.592066632
281.2160802	0.603252265
281.4560835	0.617879681
281.6961006	0.609275605
281.9361172	0.60583395
282.1761206	0.615298478
282.4161508	0.612717078
282.666155	0.593787762
282.8961923	0.608415392
283.1362035	0.629065681
283.3762059	0.656599667
283.6162362	0.630786551
283.8562405	0.610996614
284.0862686	0.579160315
284.3362737	0.610136279
284.5782746	0.606694337
284.8183063	0.583462312
285.0583082	0.560230638
285.2983536	0.566253872
285.5383492	0.594648124
285.7801512	0.583462556
286.0201668	0.606693992
286.2601848	0.588624955
286.510211	0.561951671
286.740217	0.540440726
286.9802365	0.51376703
287.2202507	0.524952592
287.4602692	0.512045986
287.6981235	0.510325435
287.9381592	0.500000006
288.1867054	0.500000076
288.4267225	0.50516302
288.6567402	0.502581721
288.8967734	0.500860708
289.1367739	0.500000067
289.3868034	0.531836462
289.6268093	0.507744365
289.8648635	0.509465062
290.1048801	0.509464711
290.3448972	0.518929662
290.5749413	0.523231745
290.818668	0.521510747
291.0586855	0.522371419
291.3039376	0.543882406
291.5439581	0.518069361
291.7839776	0.523232035
292.02398	0.527534032
292.2639824	0.567114188
292.503997	0.587764756
292.7440161	0.58002061
292.9840326	0.558509969
293.2240502	0.573997987
293.4640663	0.593787608
293.7041029	0.610996593
293.9441165	0.601532053
294.194149	0.627344855
294.4241394	0.630786952
294.6641541	0.643693466
294.9041741	0.62476356
295.1409321	0.660041861
295.3809482	0.681553035
295.6209746	0.674669184
295.8609834	0.636810048
296.1018147	0.619601049
296.3385156	0.610136073
296.5885398	0.603252797
296.8285583	0.580020818
297.0685622	0.589485693
297.3086056	0.594648397
297.5486095	0.623903453
297.798619	0.604113414
298.0286446	0.58690481
298.2686602	0.592067205
298.5186644	0.586904653
298.7586971	0.581741822
298.998698	0.555067902
299.2387415	0.546463872
299.4787322	0.547324213
299.728751	0.537859416
299.95878	0.53613889
300.1988107	0.536138794
300.4388024	0.530976201
300.6788238	0.504302541
300.9188614	0.500861135
301.1588624	0.499999974
301.3812078	0.499999908
301.6412142	0.531836238
301.8812258	0.523231679
302.1112563	0.545603023
302.3612634	0.530114894
302.601277	0.527533762
302.8413088	0.54302183
303.0813146	0.555928442
303.3213283	0.56109112
303.5613727	0.556788762
303.8013854	0.589485795
304.0313777	0.599810903
304.2714241	0.621321941
304.5014384	0.637670096
304.7614355	0.647995494
304.9914479	0.667785742
305.2314665	0.660041749
305.4814955	0.650576655
305.7215258	0.635949178
305.9615253	0.639391098
306.2015331	0.670366883
306.433888	0.680692363
306.6838883	0.69359901
306.9241893	0.701342642
307.1654204	0.735760423
307.4054375	0.707365906
307.6254535	0.709086406
307.8854975	0.697040548
308.1255019	0.697900956
308.36554	0.686715194
308.5855398	0.681552658
308.8355396	0.697040966
309.0855833	0.734899705
309.3255789	0.742643824
309.5655969	0.75296902
309.7856164	0.752108374
310.0394201	0.732318252
310.2794591	0.733178625
310.5194542	0.721992884
310.7694447	0.69790066
310.9994864	0.706505005
311.2394912	0.716830129
311.479521	0.717691127
311.7195234	0.689296387
311.9595419	0.726295055
312.1995712	0.72027243
312.4395673	0.71252853
312.6895783	0.694459086
312.9196239	0.703923676
313.1596278	0.692738017
313.399657	0.663483312
313.6396609	0.664343496
313.8897003	0.66176237
314.1196848	0.67897139
314.3697012	0.68585462
314.5997424	0.681552587
314.8397467	0.667785563
315.079777	0.673808798
315.3197809	0.682413351
315.5697972	0.64541423
315.8098285	0.669506603
316.0398272	0.670367066
316.2929862	0.681552679
316.5230181	0.666925318
316.7630274	0.647995595
317.0030655	0.640251698
317.2430542	0.642832962
317.4716316	0.630786947
317.7016474	0.610136418
317.9416645	0.608415563
318.1816806	0.604973679
318.4216981	0.615299032
318.6630524	0.60669459
318.9307263	0.589485901
319.1762833	0.599811193
319.406303	0.568835296
319.6463191	0.53958019
319.9063348	0.521511129
320.1263777	0.545603359
320.3663962	0.566253784
320.6041343	0.580020447
320.844164	0.598089865
321.0841679	0.611857168
321.3266136	0.611857101
321.5681927	0.61529919
321.7982393	0.615299047
322.0382304	0.629066041
322.2882444	0.617880315
322.5282883	0.622182663
322.76828	0.629066117
323.0082936	0.65401851
323.2483122	0.660041631
323.4883307	0.654018285
323.7283482	0.623042811
323.9683629	0.632507493
324.1883784	0.618740112
324.4483975	0.592066767
324.6884131	0.5688352
324.9284321	0.57141626
325.1684502	0.569695562
325.4084672	0.576579117
325.6484833	0.576579113
325.8907692	0.573137344
326.1307852	0.603252686
326.3708028	0.584322932
326.6108321	0.586904542
326.8521072	0.586044037
327.0912557	0.585183502
327.3213023	0.60153179
327.5712899	0.580020945
327.8113074	0.598950572
328.0413511	0.594648325
328.2813706	0.601531998
328.5313577	0.631647355
328.7713747	0.616159123
329.0113923	0.601531952
329.2514118	0.567114288
329.4914289	0.575718826
329.731443	0.54044075
329.9714694	0.545603317
330.2114874	0.513767115
330.4514937	0.53958011
330.691522	0.544742696
330.9415443	0.542161077
331.1715625	0.566253612
331.4150683	0.551626337
331.6550858	0.562812118
331.8951034	0.567974432
332.13512	0.554207454
332.3751424	0.569695562
332.6151541	0.566253753
332.8551726	0.561951756
333.0951882	0.569695526
333.3352043	0.585183548
333.5752439	0.576579218
333.8152399	0.592067042
334.0452572	0.557649515
334.2952745	0.560230911
334.5253202	0.573997798
334.7753077	0.577439708
335.0153248	0.573997879
335.255355	0.57313739
335.4953594	0.555928736
335.7553863	0.568834962
335.9753935	0.55764978
336.2154248	0.597229981
336.4481927	0.629066285
336.7082147	0.64799584
336.9282268	0.66606479
337.1682454	0.679831904
337.4147154	0.699621858
337.654732	0.71769132
337.8947495	0.717691188
338.1347681	0.697040573
338.3747827	0.678971441
338.6148012	0.714249441
338.8548168	0.738341665
339.0948349	0.744364522
339.3348509	0.72285349
339.574869	0.720272069
339.8148861	0.685854756
340.0549031	0.665204152
340.2949202	0.642832804
340.5349373	0.614438319
340.7749533	0.611857269
341.0351396	0.62218212
341.2503571	0.652297314
341.5085512	0.681552252
341.7485604	0.696179841
341.978565	0.721993191
342.2286215	0.722853461
342.4686009	0.75899163
342.7186168	0.807176383
342.9486336	0.843315009
343.1886506	0.903545539
343.4286824	0.975822339
343.6687253	1.067028669
343.9087023	1.172862548
344.1487194	1.26062687
344.3987377	1.377646987
344.6287809	1.438737649
344.8687716	1.509293766
345.1088023	1.587593612
345.3288183	1.671055958
345.5588195	1.770866862
345.7988356	1.847445754
346.0488549	1.920583557
346.28887	1.98769667
346.5489145	2.056532276
346.7789059	2.113321105
347.0089207	2.159784977
347.2389384	2.192481969
347.5089598	2.178714781
347.7289851	2.206248656
347.9889939	2.190760685
348.22901	2.188180159
348.4525465	2.170110981
348.712568	2.179575419
348.95259	2.188179829
349.1926007	2.160645466
349.4326451	2.152041243
349.672651	2.112461434
349.9162373	2.11504249
350.1362656	2.092671222
350.3962725	2.080624744
350.6363174	2.05136952
350.8763085	2.035021381
351.1127416	2.022114668
351.3531927	1.985115909
351.5938603	1.979953831
351.8338358	1.955861371
352.0738529	1.93176904
352.3138714	1.876701088
352.548653	1.86379458
352.7886686	1.819912539
353.0387036	1.799261823
353.2687037	1.786355502
353.5087213	1.764844506
353.7487647	1.760542087
353.9987537	1.751937763
354.2287715	1.730426196
354.4687891	1.685683672
354.7188128	1.688265114
354.9488222	1.695148318
355.1888701	1.680521594
355.4288568	1.671056282
355.6689189	1.649545402
355.9088919	1.664172977
356.1489183	1.626313723
356.3989244	1.623732287
356.6289691	1.613407087
356.8708204	1.609104602
357.1108472	1.560920127
357.3508824	1.523921668
357.5909019	1.480899197
357.8316281	1.491224983
358.0816592	1.480039461
358.3116623	1.434435375
358.5517062	1.41722687
358.7916959	1.372484341
359.0317379	1.35269392
359.2717301	1.336345984
359.5117706	1.294184567
359.761764	1.265790361
359.9917822	1.259767529
360.2318384	1.240837211
360.4718159	1.19953677
360.7231783	1.215024447
360.9548539	1.193513825
361.1948704	1.203838386
361.4442959	1.182326947
361.674298	1.172002005
361.9192177	1.159095434
362.1592465	1.139305386
362.3992685	1.159956143
362.629298	1.159095649
362.8793041	1.183188087
363.119304	1.172862809
363.3593328	1.193513323
363.5993568	1.186630363
363.8293579	1.190072115
364.0593864	1.203838243
364.3094047	1.181467348
364.5594055	1.187490586
364.799423	1.147049531
365.0394401	1.116933803
365.2694588	1.104027991
365.5094769	1.104027482
365.7595099	1.108329765
365.999544	1.062726339
366.2395377	1.069610745
366.4795435	1.042076798
366.719564	1.034332225
366.9595761	1.011100282
367.1996152	1.007658113
367.4396274	0.973240855
367.6796596	0.948288107
367.9196635	0.927638123
368.1696662	0.906127035
368.3996805	0.90784786
368.6396985	0.92247515
368.8817131	0.909568278
369.1217444	0.91645247
369.3617741	0.879453181
369.6017761	0.912150179
369.8417907	0.900104082
370.0818341	0.916452262
370.3218121	0.914731609
370.5618473	0.93021925
370.8018673	0.906987422
371.0418736	0.904405879
371.2818804	0.890639364
371.5219043	0.885476492
371.7619233	0.890638927
372.0019609	0.878592865
372.2519783	0.851918818
372.4819941	0.858802552
372.7219847	0.830408274
372.9520005	0.826966121
373.2020296	0.787386566
373.442034	0.76673613
373.6820809	0.728016617
373.9220681	0.726295797
374.1620862	0.703063879
374.4021032	0.68757574
374.652123	0.680692439
374.8821379	0.70908687
375.1321836	0.729737438
375.362172	0.732318599
375.6021886	0.747806438
375.8422056	0.758131577
376.0822227	0.744364411
376.322252	0.746085348
376.5661991	0.773619401
376.8062196	0.788247025
377.0462205	0.782223887
377.2862449	0.78652591
377.5262556	0.802013938
377.7662712	0.802874512
378.0062878	0.807176646
378.2463171	0.813199677
378.486339	0.786525788
378.7263747	0.762433808
378.9663556	0.765014914
379.2163954	0.771898296
379.4463907	0.772758749
379.6864073	0.786525737
379.9264419	0.80201411
380.1664429	0.774479955
380.4164817	0.761573212
380.646476	0.777921728
380.8885278	0.783084107
381.1285463	0.777061072
381.3785646	0.76501534
381.6086141	0.775340343
381.8586266	0.791688656
382.0886136	0.785665533
382.3353788	0.802013891
382.5653941	0.815780926
382.8054117	0.82352499
383.0454287	0.821803864
383.2854458	0.818361797
383.5389411	0.833850262
383.7789308	0.862244834
384.0089495	0.891499493
384.2689652	0.898383012
384.4889993	0.906126511
384.7389986	0.907847652
384.9790161	0.908707962
385.2190606	0.912149506
385.4590503	0.894080221
385.6990688	0.923335395
385.9490886	0.913870433
386.1791293	0.925917167
386.4224748	0.947428011
386.6425206	1.018844308
386.8825264	1.135003113
387.1402821	1.291603045
387.3802694	1.475736998
387.6202859	1.719240626
387.8500163	2.030719338
388.1000337	2.361988264
388.3400527	2.713907546
388.5800693	3.120034414
388.8210756	3.525300558
389.0710919	3.942612672
389.3011464	4.336693472
389.5411683	4.769493857
389.7811453	5.18852757
390.0111748	5.569701112
390.2611789	5.902690873
390.5012024	6.194379604
390.7512427	6.404327031
390.9812306	6.593622238
391.2212545	6.718386164
391.4657114	6.779477269
391.7057285	6.846591039
391.9457729	6.877567642
392.1857626	6.841428771
392.4258056	6.788081938
392.6658114	6.714945102
392.8958218	6.658155699
393.1458587	6.566088179
393.3858758	6.461116077
393.6259051	6.369048628
393.8658889	6.259772661
394.1058991	6.17544974
394.335914	6.074779028
394.5859606	5.975826239
394.8259503	5.888923123
395.0659777	5.805460985
395.2987065	5.660907888
395.5487278	5.522376551
395.778725	5.411380137
396.0187426	5.33222079
396.2587914	5.240153213
396.4988036	5.111087671
396.7388216	4.997510049
396.9888102	4.871025928
397.2188387	4.789284551
397.4588445	4.708402998
397.6989036	4.610312682
397.938907	4.532873254
398.1789231	4.423597623
398.4189123	4.32808857
398.6689306	4.211069684
398.8989728	4.143094516
399.1389693	4.051888501
399.3889833	3.976170112
399.6290101	3.894428556
399.8590215	3.810105796
400.1090315	3.749013902
400.3390561	3.69824872
400.5790669	3.624250952
400.8191108	3.526161144
401.0591005	3.478837084
401.3091266	3.382467789
401.5430598	3.310191081
401.7930258	3.263727087
402.0230646	3.210380347
402.263088	3.175962465
402.5030772	3.132080623
402.7431373	3.113150921
402.9831602	3.04861795
403.2231558	2.978061681
403.4631846	2.928155914
403.7131614	2.905784765
403.9531931	2.838670867
404.1880949	2.830066127
404.4281178	2.78446316
404.6670377	2.747464671
404.9170565	2.713907551
405.1470713	2.670885711
405.3879848	2.627863591
405.6199468	2.571074447
405.8699607	2.510843393
406.1100164	2.479006724
406.3499948	2.419637119
406.5900305	2.405009994
406.8300461	2.372313582
407.0700582	2.358546823
407.3100631	2.323268646
407.5506466	2.332733464
407.7898494	2.280246642
408.0298665	2.281107086
408.2698821	2.2372244
408.5099187	2.229480564
408.7499299	2.22431785
408.999936	2.213992191
409.2299631	2.215713719
409.4699694	2.227760131
409.7100133	2.217434824
409.9500338	2.239806157
410.1900196	2.230340809
410.4300372	2.207969842
410.670065	2.184737705
410.9100767	2.181296417
411.1500889	2.149460387
411.389363	2.143437442
411.6293967	2.098694425
411.8773124	2.07288129
412.1173398	2.056532306
412.3473478	2.053950891
412.5973651	2.048788771
412.8273819	2.014371148
413.0673999	1.990278787
413.3141901	1.94897773
413.5541754	1.90251456
413.7942042	1.878421598
414.0242126	1.859492068
414.2744323	1.832818458
414.5092682	1.785494642
414.7620362	1.76570445
414.9920393	1.768285907
415.2320652	1.760542259
415.4721047	1.748495374
415.7121096	1.746774117
415.9521037	1.725263731
416.1921383	1.696009402
416.4335977	1.67363784
416.6736045	1.627173896
416.9136201	1.615127805
417.1636404	1.598779152
417.3936371	1.600500242
417.6336547	1.578989112
417.8736713	1.588454847
418.1136908	1.597058719
418.353724	1.5738274
418.6023024	1.560920311
418.8295793	1.535967465
419.0695543	1.525642143
419.3095939	1.504131269
419.5495885	1.470574241
419.790084	1.479178907
420.0300962	1.472294802
420.2700825	1.488643476
420.5101176	1.476597501
420.7501161	1.459388689
421.0001335	1.419808336
421.2301507	1.423250159
421.4701771	1.389692888
421.7132396	1.342368699
421.9532395	1.350113314
422.1932566	1.316555935
422.4332737	1.317416689
422.6732902	1.294184302
422.9133073	1.30020713
423.1633242	1.298486442
423.3933414	1.258046281
423.6333585	1.258906074
423.8733897	1.227069922
424.1134049	1.240837023
424.36341	1.239116177
424.5934263	1.234814109
424.8334443	1.243418668
425.0734937	1.268371788
425.3135107	1.263208573
425.553495	1.233953513
425.8019059	1.216745245
426.0419293	1.214163479
426.2819268	1.230511975
426.5153927	1.198675895
426.7654325	1.182327328
426.9954268	1.184048977
427.2354434	1.166839728
427.495504	1.156514665
427.7255106	1.110050757
427.9655247	1.114352917
428.1955117	1.12295747
428.4355493	1.091121441
428.6755497	1.06272666
428.9155629	1.073052161
429.1655822	1.068749426
429.3956195	1.08337668
429.6356141	1.061866395
429.8856319	1.049819602
430.1156668	1.035192348
430.3656856	1.047238552
430.5957004	1.04551729
430.8357141	1.039494538
431.0757194	1.03605275
431.3157335	1.049819759
431.5682997	1.0489595
431.8082899	1.019705079
432.0483065	1.025727779
432.2883504	1.030890286
432.5283484	1.013681331
432.7683587	0.997333151
433.0083748	0.980124116
433.2484045	1.002495943
433.4884099	1.01282125
433.7384267	1.017123628
433.9784428	1.010239793
434.2084596	1.019704805
434.4484772	1.010240088
434.6985101	1.003356461
434.9285113	1.011100181
435.1785277	1.006798219
435.4085449	1.001635549
435.648563	0.994751664
435.8885796	0.963776108
436.1285961	0.960334183
436.3786311	0.973241227
436.6213627	0.976682629
436.8513799	0.977543596
437.091399	0.974962124
437.3314146	0.97410163
437.5714316	0.964637076
437.8114487	0.937963273
438.0514653	0.940544587
438.2914833	0.946567231
438.5314999	0.931079316
438.771517	0.904405951
439.0115335	0.909568665
439.2615504	0.8992432
439.4915672	0.900103567
439.7215835	0.898382798
439.9716165	0.877732621
440.2116208	0.8837555
440.4516359	0.858802745
440.691652	0.834710801
440.9316764	0.849338513
441.1816982	0.845035915
441.4078871	0.869988425
441.6479066	0.857081884
441.8879349	0.852779872
442.137942	0.844175477
442.3779757	0.832989746
442.6179737	0.844175075
442.8566814	0.86998839
443.096697	0.891499772
443.3367141	0.91301051
443.5867314	0.930219193
443.8167487	0.906126755
444.0367622	0.906126862
444.2936211	0.89321994
444.5336382	0.857081848
444.7754885	0.849337769
445.0155066	0.81319929
445.2590299	0.845035849
445.4981848	0.859662975
445.7282046	0.882895484
445.9782312	0.894080837
446.2182395	0.907847988
446.4610927	0.872570028
446.7011293	0.875151033
446.9411146	0.840733388
447.1811434	0.82094395
447.411149	0.844175376
447.6588199	0.857082241
447.8988438	0.859663356
448.1388432	0.860523565
448.3788447	0.877732748
448.6188642	0.906127234
448.8583944	0.874290746
449.0984101	0.865686178
449.3384442	0.840733409
449.5826249	0.829547872
449.8187565	0.798572251
450.0588024	0.795990962
450.2987999	0.76415477
450.5388179	0.774480123
450.7799772	0.786526052
451.0200089	0.785665961
451.2600006	0.75813175
451.5061172	0.753829692
451.7361658	0.778782238
451.9861719	0.752108719
452.216174	0.728016312
452.4561877	0.746085379
452.7061908	0.731458054
452.9462182	0.728876786
453.1862284	0.739201996
453.4262596	0.755550406
453.6562886	0.757271215
453.9062752	0.781363287
454.1463103	0.780502925
454.386322	0.776200709
454.6263596	0.746085348
454.8663562	0.753829387
455.0963637	0.751247869
455.346381	0.720272491
455.5863961	0.731457968
455.8164134	0.719412053
456.0664288	0.69445904
456.2964485	0.687575546
456.5389939	0.672087936
456.7790012	0.680691865
457.019026	0.666064611
457.2590368	0.672948105
457.4990529	0.674668941
457.7390699	0.66176241
457.9890907	0.65918102
458.2191045	0.686714967
458.4691419	0.699621446
458.6991392	0.698761098
458.9391548	0.719411673
459.179186	0.716830602
459.4192016	0.746945853
459.6692111	0.767595973
459.899224	0.780502767
460.1392411	0.812338858
460.3792787	0.78910702
460.619308	0.78394428
460.8693253	0.780502854
461.0993348	0.759852626
461.3493301	0.764154709
461.5819065	0.761573309
461.821924	0.729737361
462.0619479	0.735760275
462.3019606	0.748666927
462.5419743	0.759852535
462.791995	0.777921957
463.0220211	0.750387431
463.2620255	0.739202179
463.5020694	0.744364686
463.7420938	0.739201885
463.9920784	0.748666952
464.2354248	0.76759636
464.4776066	0.776201096
464.7176231	0.780503337
464.9576407	0.786526551
465.1976861	0.780503449
465.4376743	0.781363536
465.67773	0.745225057
465.9077277	0.745225307
466.157727	0.731457942
466.3977441	0.713388728
466.637788	0.710807114
466.8877809	0.724574108
467.0977957	0.734899547
467.3278081	0.720271968
467.5978294	0.746085013
467.8378455	0.726294953
468.0778636	0.742643515
468.3178792	0.735760234
468.5579241	0.755550381
468.7979148	0.75210849
469.0379313	0.760713003
469.2779763	0.778782436
469.517966	0.763294551
469.757983	0.774480338
469.9980006	0.771898773
470.2380176	0.797711869
470.4780342	0.780503266
470.7180518	0.771037909
470.9580728	0.758131134
471.1980849	0.753828874
471.4404983	0.779642325
471.68051	0.746945618
471.9205119	0.740922368
472.1605295	0.724574474
472.4005475	0.736620901
472.650562	0.75899229
472.8805807	0.764154669
473.1205983	0.761573323
473.3606442	0.762433875
473.6006324	0.75210849
473.8474822	0.734899674
474.0574788	0.726295451
474.3275085	0.710807694
474.5575062	0.728016541
474.8040349	0.70736583
475.0392358	0.671227366
475.2830988	0.68155244
475.523135	0.690156581
475.7631579	0.699621568
476.0031495	0.694459015
476.2473004	0.663483541
476.4775333	0.643693207
476.7175498	0.643693583
476.9675677	0.621321895
477.197584	0.632507543
477.445791	0.623903224
477.6857773	0.654879151
477.9258026	0.656599767
478.1658114	0.665204194
478.4058436	0.647995509
478.6458519	0.660041738
478.8858641	0.672948187
479.1258792	0.674669103
479.3658982	0.654018865
479.6059417	0.657460653
479.8459309	0.687575975
480.0859494	0.696180339
480.3259665	0.700482447
480.5693349	0.69962202
480.8086037	0.687575414
481.0485914	0.684133601
481.2786532	0.662622859
481.5220969	0.67380836
481.7594898	0.678971508
482.0095072	0.707365815
482.2395249	0.717691112
482.4895418	0.695319382
482.7295814	0.699621776
482.9595761	0.69101741
483.1995922	0.704784282
483.4496223	0.66864593
483.6796269	0.655739792
483.9296437	0.681552496
484.1696921	0.668645991
484.3997054	0.68585463
484.6397171	0.715109686
484.8797176	0.736620484
485.1197307	0.716830582
485.3697623	0.695319646
485.5997649	0.672087682
485.8398083	0.684994503
486.0897963	0.695319525
486.3198141	0.674668792
486.5698324	0.679831772
486.7998492	0.654018443
487.0399073	0.651437286
487.2799107	0.687575466
487.5299017	0.665204259
487.7699163	0.691017258
488.0099353	0.67380868
488.2499812	0.671227153
488.4899861	0.638530517
488.7199867	0.634228169
488.9800039	0.643692851
489.2100212	0.672948004
489.4500519	0.670366629
489.6900875	0.681552522
489.9301007	0.687575607
490.1701202	0.716830247
490.4101358	0.737481253
490.6501314	0.745225032
490.8903215	0.726295314
491.1314763	0.722853612
491.3714861	0.7159702
491.6038904	0.729736995
491.853897	0.739201799
492.0920617	0.741783473
492.3321091	0.740062174
492.5720963	0.733179027
492.8095699	0.703063436
493.0495826	0.683273341
493.2996503	0.684134151
493.5296089	0.679832051
493.7696338	0.66950675
494.0096587	0.677250596
494.2496591	0.705644634
494.4897046	0.720272025
494.7397307	0.749527228
494.9776799	0.761573462
495.215524	0.778782202
495.4455119	0.753829631
495.6955258	0.767596787
495.9355527	0.773619725
496.1855749	0.77792184
496.4155775	0.783944595
496.6556269	0.777061478
496.8956112	0.765015061
497.1356468	0.797711396
497.3756654	0.777921529
497.6156795	0.752969025
497.8556804	0.720272359
498.0956985	0.685854756
498.3357155	0.671227143
498.5757341	0.668645875
498.8157878	0.638530456
499.0557648	0.66090205
499.2957819	0.654018234
499.5358023	0.662622666
499.7758346	0.652297358
500.0158448	0.677250062
500.2558511	0.682412806
500.4958677	0.674668681
500.745929	0.654878769
500.9759052	0.654018539
501.215935	0.66778533
501.4578054	0.700482077
501.697823	0.735760046
501.9278422	0.719411799
502.1778649	0.702202851
502.4078719	0.69962178
502.6479213	0.675529724
502.8982719	0.664343872
503.1283078	0.67811112
503.3783051	0.668646342
503.6183226	0.637670115
503.8583397	0.660041866
504.0983714	0.660902044
504.3383758	0.665204112
504.5783909	0.660902059
504.8172614	0.648855703
505.0540488	0.628205231
505.2940663	0.610996404
505.5340834	0.631646582
505.7741318	0.631646719
506.0141166	0.637669993
506.254075	0.626484176
506.4941038	0.639391098
506.7341077	0.614438476
506.9818992	0.618740667
507.2119346	0.628205643
507.4567966	0.60583403
507.7068164	0.603252777
507.9446806	0.586043904
508.1747008	0.593787908
508.4247152	0.598089941
508.6547183	0.610996547
508.90889	0.620461477
509.1489071	0.597229807
509.3889251	0.617019832
509.6289691	0.628205714
509.8689612	0.664344021
510.1089758	0.649716603
510.3489934	0.649716288
510.58901	0.661762396
510.8190321	0.648855692
511.0690837	0.654878998
511.3090621	0.651437103
511.5485132	0.665204234
511.7881476	0.692738145
512.0281647	0.71424938
512.2681817	0.693598953
512.5081988	0.70134283
512.7499201	0.736620774
512.9899372	0.722853755
513.2299538	0.718551504
513.4699699	0.687575607
513.7199897	0.691017446
513.950005	0.693598567
514.1800188	0.697040085
514.4300523	0.705644786
514.6700567	0.704784297
514.9101104	0.705644811
515.1500898	0.730597307
515.3901069	0.732318366
515.6301235	0.735760082
515.8801736	0.768456651
516.1201858	0.77275877
516.3602077	0.750387538
516.5901922	0.742643789
516.8302108	0.754689993
517.0702264	0.786526073
517.3202427	0.796851278
517.5602759	0.81922313
517.8002945	0.792549479
518.0402979	0.801153819
518.2803262	0.786526275
518.5103557	0.792548869
518.7503449	0.768456996
518.9868219	0.760713085
519.2055823	0.72973701
519.4687749	0.696180135
519.7096243	0.699621492
519.9677084	0.697900671
520.1988405	0.711667705
520.4388728	0.698761012
520.6710703	0.679831442
520.9029067	0.684133815
521.1607054	0.680692266
521.3984718	0.691017639
521.644262	0.68671547
521.8796731	0.688436615
522.1081073	0.705645132
522.3923092	0.691877945
522.5884489	0.672087814
522.8456322	0.677250407
523.0627857	0.709087053
523.3149682	0.673808812
523.547131	0.672087947
523.789304	0.687575563
524.0304755	0.688435995
524.2706475	0.688436127
524.5078156	0.691017345
524.7439828	0.676389933
524.9801529	0.686715312
525.2387938	0.715109671
525.4880897	0.726294927
525.7275785	0.73059755
525.944225	0.754689896
526.1773889	0.744364486
526.4205349	0.743504227
526.6573018	0.730597443
526.9216116	0.72973701
527.1516597	0.755549811
527.4052713	0.750387279
527.6455513	0.738341563
527.8640766	0.731457764
528.1242619	0.731458222
528.3464206	0.736620514
528.5965983	0.734039393
528.8224265	0.728876588
529.086685	0.7262954
529.3063828	0.721132198
529.5419948	0.701342438
529.778858	0.717690399
530.0220279	0.709946991
530.261416	0.706505209
530.5089148	0.718551128
530.7521567	0.695319489
530.9876816	0.68499407
531.2218479	0.686715169
531.4770518	0.690156932
531.7300452	0.679831747
531.9659147	0.693598634
532.1952834	0.681552383
532.4321632	0.652297831
532.6753376	0.676390168
532.9060836	0.65057698
533.1475948	0.673808783
533.4012513	0.68929655
533.6203876	0.688436071
533.869577	0.700482392
534.120739	0.688436045
534.3622248	0.67897143
534.5973671	0.665204163
534.8637443	0.699621868
535.0881014	0.691877762
535.3226503	0.720272508
535.548916	0.71510964
535.7910879	0.730597397
536.0352618	0.739201925
536.2674276	0.712528631
536.5095996	0.721132553
536.7517979	0.708226075
537.0111113	0.714249162
537.2322832	0.710807612
537.4724385	0.685854803
537.7146726	0.700482468
537.9518402	0.727155834
538.1910108	0.727155864
538.4522459	0.724574784
538.6860339	0.745225317
538.9193033	0.717691442
539.1614772	0.70134285
539.3956879	0.707365805
539.6509784	0.692738286
539.8971815	0.684133855
540.109359	0.70822607
540.3636118	0.721132646
540.607622	0.691877762
540.8481371	0.723713766
541.09735	0.73145809
541.3234416	0.734039124
541.5668867	0.73748108
541.7966469	0.740062292
542.0428437	0.703923802
542.2823466	0.687575521
542.5274433	0.684133926
542.7555696	0.681552673
543.0038182	0.693598898
543.2549977	0.692738444
543.4781437	0.690157226
543.7381848	0.684134054
543.9640169	0.661762507
544.1971822	0.668646012
544.4503373	0.646274679
544.6776592	0.628205429
544.9215212	0.637670253
545.1614777	0.601531636
545.3937935	0.609275503
545.632771	0.645413967
545.8887755	0.652297465
546.1201447	0.67639
546.3573055	0.685854681
546.5964238	0.674668859
546.8374829	0.676390116
547.1056665	0.678111114
547.3243424	0.651437322
547.5709795	0.662623088
547.8068804	0.682413189
548.0400804	0.675529836
548.2992925	0.70048225
548.5290674	0.673808716
548.7764142	0.700482285
549.0133062	0.684133794
549.2685072	0.647995254
549.4904088	0.641111745
549.717435	0.63853062
549.978241	0.637670126
550.2005746	0.632507482
550.4381196	0.638530686
550.692828	0.664343975
550.9198771	0.682412914
551.1768439	0.69962199
551.4160472	0.691017416
551.6450787	0.715110027
551.8824819	0.719412024
552.1433627	0.715109705
552.3889798	0.714249431
552.6239237	0.709086675
552.8711249	0.704784423
553.1090579	0.705644821
553.3198376	0.676390238
553.5633629	0.68757576
553.8031825	0.697040508
554.0379225	0.710807521
554.3007402	0.693598989
554.5411243	0.677250554
554.782961	0.676390133
555.0266823	0.684994467
555.2467271	0.665204442
555.4967137	0.641112147
555.7446661	0.652297648
555.9628605	0.649716416
556.2108911	0.658320633
556.460949	0.687575796
556.7028141	0.69531956
556.9428326	0.696179967
557.1847235	0.707365632
557.4247406	0.716830695
557.6698817	0.697040598
557.8997025	0.698761739
558.1575144	0.727156088
558.3820792	0.696180099
558.6319636	0.687575796
558.871901	0.689296738
559.0942484	0.699621862
559.3405058	0.701342896
559.5686682	0.701342749
559.8058462	0.703063665
560.0741427	0.677250834
560.3103119	0.66434404
560.5489194	0.670367096
560.7667536	0.655739436
561.030281	0.628205572
561.2471465	0.623903213
561.5086656	0.629065766
561.7431265	0.611856964
561.9831451	0.614438293
562.2331619	0.623042512
562.4684225	0.629065888
562.7048702	0.614438283
562.9448888	0.608414922
563.1949095	0.592927058
563.4249644	0.586904439
563.6749676	0.603252884
563.9049565	0.606694433
564.1249701	0.623043035
564.3878748	0.604973958
564.6278919	0.617019944
564.8679412	0.620461471
565.0979267	0.627344839
565.3379437	0.628205582
565.5879616	0.623042908
565.8179798	0.596369186
566.068809	0.591206726
566.3188004	0.619601233
566.5465744	0.635949464
566.7873666	0.63939122
567.0279183	0.669506445
567.2679672	0.672087606
567.5079535	0.696179765
567.7494177	0.679831614
567.9961907	0.686715047
568.2392361	0.691017162
568.4702113	0.71510936
568.7109825	0.691878006
568.9470319	0.709947165
569.1872108	0.707365992
569.431848	0.735760143
569.6660636	0.73403948
569.8992294	0.709947087
570.1323952	0.704784333
570.3900277	0.702203227
570.6343468	0.703063162
570.8724078	0.684994257
571.1117891	0.654018285
571.3494836	0.652297699
571.5929937	0.658320898
571.8294498	0.644553874
572.0685851	0.634228989
572.3144604	0.639391657
572.5445197	0.638530849
572.7913738	0.652297806
573.0292355	0.618740534
573.2692643	0.612717443
573.5092921	0.625623892
573.7492872	0.621322088
573.9893038	0.639391434
574.239369	0.641112163
574.4693409	0.674669099
574.7093706	0.68843603
574.9493725	0.6849941
575.1893935	0.691017345
575.4294057	0.680692138
575.6694237	0.665204371
575.9094428	0.664344004
576.1494735	0.66606451
576.3894749	0.656599975
576.6294915	0.670367142
576.8800646	0.672948496
577.1126639	0.668646327
577.3546311	0.667785767
577.5946482	0.655739619
577.8365303	0.62132197
578.0708373	0.620461391
578.3108549	0.60583373
578.5508905	0.613577733
578.7895396	0.626484544
579.033951	0.652297669
579.2739842	0.663483419
579.5139988	0.676390234
579.7587577	0.653158051
579.9887872	0.647995473
580.2288018	0.634228714
580.477217	0.66090239
580.7172365	0.675529684
580.9572521	0.675529602
581.1972697	0.696180019
581.4373161	0.697040756
581.6747316	0.6772506
581.911711	0.670366445
582.171713	0.683273448
582.3917281	0.64971584
582.6285116	0.630786753
582.8777567	0.637670136
583.1096259	0.629065659
583.3577234	0.619600876
583.5962117	0.647995611
583.8285515	0.655739644
584.0876087	0.659181077
584.3175986	0.635949336
584.5385731	0.621322128
584.8047929	0.59722966
585.0307257	0.611856903
585.2776165	0.611857025
585.512558	0.616159317
585.7538687	0.622182511
585.9958012	0.651437013
586.2374512	0.657460048
586.4909685	0.653158086
586.7111287	0.658320643
586.9611362	0.679831767
587.1954584	0.688436184
587.4455012	0.692738368
587.6755062	0.668646195
587.9255373	0.67897138
588.165524	0.68929687
588.3955432	0.69618012
588.6355613	0.694459147
588.8755774	0.695319646
589.1089177	0.721993206
589.3767074	0.697901036
589.5966574	0.703923855
589.8342356	0.719411708
590.0935964	0.722853501
590.3188361	0.729737382
590.5588551	0.724574535
590.8089116	0.694459513
591.0389181	0.686715617
591.2893035	0.695319779
591.5193301	0.686715266
591.7793311	0.709086473
591.9993481	0.707365637
592.2398011	0.692738347
592.4955177	0.681552673
592.7425581	0.678971268
592.9664514	0.690156932
593.2143681	0.684134054
593.4443858	0.660041631
593.6766123	0.655739268
593.9107668	0.648855871
594.1504315	0.645413839
594.4070631	0.675529283
594.6372118	0.680692281
594.8895551	0.666064748
595.0995615	0.678971355
595.361347	0.684134101
595.6099694	0.668645991
595.8299835	0.701343146
596.09003	0.69618044
596.3300206	0.676390055
596.5739223	0.692738776
596.7939163	0.669506658
597.0527086	0.691878047
597.2927423	0.685855118
597.5359861	0.690157319
597.7730878	0.673808863
598.0059002	0.653158086
598.2501948	0.647134984
598.4902129	0.663483272
598.7302167	0.646274668
598.979934	0.615298732
599.2214334	0.611857223
599.4540738	0.60067152
599.695825	0.617880117
599.9295113	0.649716183
