0	1.03243
0.25	1.02972
0.5	1.02645
0.75	1.02458
1	1.02876
1.25	1.03416
1.5	1.04225
1.75	1.05452
2	1.06941
2.25	1.08592
2.5	1.10237
2.75	1.1172
3	1.12959
3.25	1.13881
3.5	1.14555
3.75	1.15033
4	1.15335
4.25	1.15526
4.5	1.15727
4.75	1.15785
5	1.15886
5.25	1.16096
5.5	1.1667
5.75	1.18211
6	1.1931
6.25	1.19852
6.5	1.20159
6.75	1.20102
7	1.19901
7.25	1.19666
7.5	1.19505
7.75	1.19895
8	1.20991
8.25	1.22701
8.5	1.26136
8.75	1.27439
9	1.29035
9.25	1.29459
9.5	1.29847
9.75	1.2955
10	1.29036
10.25	1.29358
10.5	1.29902
10.75	1.30623
11	1.3154
11.25	1.32595
11.5	1.33864
11.75	1.35022
12	1.3596
12.25	1.37004
12.5	1.37945
12.75	1.38922
13	1.40403
13.25	1.42094
13.5	1.43904
13.75	1.4542
14	1.46101
14.25	1.47054
14.5	1.48978
14.75	1.50966
15	1.52823
15.25	1.54143
15.5	1.55869
15.75	1.58429
16	1.6114
16.25	1.63302
16.5	1.65351
16.75	1.67424
17	1.69752
17.25	1.72295
17.5	1.75215
17.75	1.78257
18	1.80921
18.25	1.83414
18.5	1.8607
18.75	1.89079
19	1.92415
19.25	1.95282
19.5	1.98194
19.75	2.01506
20	2.05105
20.25	2.08855
20.5	2.12553
20.75	2.16349
21	2.20407
21.25	2.24629
21.5	2.28867
21.75	2.33042
22	2.37021
22.25	2.40925
22.5	2.45069
22.75	2.49624
23	2.54285
23.25	2.5904
23.5	2.63543
23.75	2.68479
24	2.73575
24.25	2.78967
24.5	2.84558
24.75	2.90362
25	2.9618
25.25	3.02102
25.5	3.07461
25.75	3.12927
26	3.18547
26.25	3.24453
26.5	3.30656
26.75	3.36698
27	3.42865
27.25	3.49482
27.5	3.56796
27.75	3.6394
28	3.70416
28.25	3.76944
28.5	3.83905
28.75	3.91006
29	3.98391
29.25	4.05523
29.5	4.13334
29.75	4.21121
30	4.28789
30.25	4.36813
30.5	4.44627
30.75	4.52237
31	4.60226
31.25	4.68189
31.5	4.76455
31.75	4.85374
32	4.93921
32.25	5.02706
32.5	5.11621
32.75	5.20758
33	5.29713
33.25	5.38841
33.5	5.48146
33.75	5.57442
34	5.66598
34.25	5.76032
34.5	5.85255
34.75	5.95001
35	6.0424
35.25	6.15081
35.5	6.24545
35.75	6.33578
36	6.43474
36.25	6.53627
36.5	6.63994
36.75	6.73019
37	6.8253
37.25	6.92012
37.5	7.01927
37.75	7.12165
38	7.22426
38.25	7.32711
38.5	7.43208
38.75	7.53209
39	7.63414
39.25	7.73459
39.5	7.83377
39.75	7.93321
40	8.03529
40.25	8.13534
40.5	8.23474
40.75	8.33209
41	8.43052
41.25	8.53165
41.5	8.63055
41.75	8.72862
42	8.8274
42.25	8.92901
42.5	9.02804
42.75	9.12335
43	9.21471
43.25	9.31173
43.5	9.41557
43.75	9.50921
44	9.60394
44.25	9.70125
44.5	9.79353
44.75	9.88755
45	9.98257
45.25	10.08302
45.5	10.17996
45.75	10.26793
46	10.35376
46.25	10.43971
46.5	10.52873
46.75	10.62101
47	10.70663
47.25	10.79221
47.5	10.87834
47.75	10.95952
48	11.04742
48.25	11.12838
48.5	11.20861
48.75	11.29258
49	11.37403
49.25	11.45444
49.5	11.53388
49.75	11.61386
50	11.69494
50.25	11.77448
50.5	11.85518
50.75	11.93481
51	12.01142
51.25	12.08812
51.5	12.16314
51.75	12.23858
52	12.31108
52.25	12.38448
52.5	12.46142
52.75	12.53513
53	12.60628
53.25	12.67631
53.5	12.74533
53.75	12.81155
54	12.87798
54.25	12.94019
54.5	13.00775
54.75	13.06331
55	13.1174
55.25	13.17251
55.5	13.22754
55.75	13.28875
56	13.34768
56.25	13.4091
56.5	13.47058
56.75	13.53359
57	13.5945
57.25	13.65408
57.5	13.7095
57.75	13.75737
58	13.79788
58.25	13.83856
58.5	13.87736
58.75	13.92427
59	13.97117
59.25	14.01765
59.5	14.06026
59.75	14.10454
60	14.14818
60.25	14.18927
60.5	14.22151
60.75	14.25721
61	14.29357
61.25	14.33478
61.5	14.37769
61.75	14.4227
62	14.46211
62.25	14.50018
62.5	14.5342
62.75	14.56846
63	14.60151
63.25	14.63222
63.5	14.6637
63.75	14.69463
64	14.72545
64.25	14.75523
64.5	14.78551
64.75	14.814
65	14.84155
65.25	14.86954
65.5	14.89758
65.75	14.92418
66	14.9483
66.25	14.96859
66.5	14.98612
66.75	15.00866
67	15.03147
67.25	15.05305
67.5	15.07529
67.75	15.09648
68	15.11653
68.25	15.13612
68.5	15.15362
68.75	15.17168
69	15.19109
69.25	15.20707
69.5	15.22194
69.75	15.23824
70	15.25342
70.25	15.26963
70.5	15.28313
70.75	15.2984
71	15.31474
71.25	15.32731
71.5	15.34012
71.75	15.35347
72	15.36608
72.25	15.37775
72.5	15.38981
72.75	15.40102
73	15.41168
73.25	15.42188
73.5	15.4325
73.75	15.44058
74	15.44969
74.25	15.45835
74.5	15.46601
74.75	15.47362
75	15.48005
75.25	15.48608
75.5	15.49188
75.75	15.49638
76	15.50076
76.25	15.50865
76.5	15.51428
76.75	15.51836
77	15.52082
77.25	15.52474
77.5	15.53037
77.75	15.53192
78	15.53355
78.25	15.53545
78.5	15.53764
78.75	15.53832
79	15.53756
79.25	15.53596
79.5	15.53717
79.75	15.53751
80	15.53882
80.25	15.53604
80.5	15.53652
80.75	15.53441
81	15.52977
81.25	15.5255
81.5	15.52333
81.75	15.52543
82	15.52514
82.25	15.52257
82.5	15.51993
82.75	15.51722
83	15.51499
83.25	15.51655
83.5	15.51694
83.75	15.51551
84	15.51329
84.25	15.5101
84.5	15.50487
84.75	15.49357
85	15.47805
85.25	15.46328
85.5	15.45802
85.75	15.45619
86	15.4502
86.25	15.44161
86.5	15.43161
86.75	15.42218
87	15.41368
87.25	15.4046
87.5	15.39402
87.75	15.38537
88	15.37618
88.25	15.36741
88.5	15.35862
88.75	15.35048
89	15.34251
89.25	15.33614
89.5	15.32938
89.75	15.3175
90	15.30708
90.25	15.29561
90.5	15.28513
90.75	15.27319
91	15.26135
91.25	15.24735
91.5	15.2356
91.75	15.22533
92	15.21126
92.25	15.19627
92.5	15.18133
92.75	15.16692
93	15.15266
93.25	15.13793
93.5	15.12361
93.75	15.10821
94	15.09658
94.25	15.07639
94.5	15.05999
94.75	15.04606
95	15.02756
95.25	15.01078
95.5	14.99449
95.75	14.97708
96	14.96768
96.25	14.95123
96.5	14.92958
96.75	14.90749
97	14.89182
97.25	14.87361
97.5	14.85353
97.75	14.83472
98	14.81703
98.25	14.79795
98.5	14.77762
98.75	14.75665
99	14.73596
99.25	14.71515
99.5	14.69454
99.75	14.67548
100	14.65687
100.25	14.63634
100.5	14.61835
100.75	14.5997
101	14.57608
101.25	14.55343
101.5	14.53213
101.75	14.51322
102	14.49226
102.25	14.46977
102.5	14.45154
102.75	14.43052
103	14.4116
103.25	14.39297
103.5	14.37614
103.75	14.35315
104	14.32118
104.25	14.29048
104.5	14.2681
104.75	14.24828
105	14.2304
105.25	14.20764
105.5	14.1846
105.75	14.15976
106	14.13798
106.25	14.11599
106.5	14.09487
106.75	14.07343
107	14.05443
107.25	14.03287
107.5	14.01477
107.75	13.9929
108	13.96923
108.25	13.94523
108.5	13.91927
108.75	13.89485
109	13.87237
109.25	13.84927
109.5	13.82656
109.75	13.80375
110	13.77589
110.25	13.75102
110.5	13.72796
110.75	13.69671
111	13.67901
111.25	13.67885
111.5	13.65951
111.75	13.64285
112	13.61702
112.25	13.5899
112.5	13.56395
112.75	13.53849
113	13.5134
113.25	13.48918
113.5	13.46429
113.75	13.44151
114	13.4193
114.25	13.39457
114.5	13.36789
114.75	13.34419
115	13.32373
115.25	13.30147
115.5	13.28127
115.75	13.26083
116	13.2395
116.25	13.21636
116.5	13.19023
116.75	13.16437
117	13.14039
117.25	13.11637
117.5	13.0915
117.75	13.06705
118	13.04215
118.25	13.01472
118.5	12.99243
118.75	12.97169
119	12.95066
119.25	12.92538
119.5	12.90109
119.75	12.87524
120	12.85095
120.25	12.82901
120.5	12.80803
120.75	12.78647
121	12.7782
121.25	12.85799
121.5	13.33156
121.75	14.62775
122	16.06781
122.25	17.03193
122.5	17.56882
122.75	17.92648
123	18.34152
123.25	19.07838
123.5	20.22115
123.75	21.41399
124	22.53847
124.25	23.64957
124.5	24.74166
124.75	25.67594
125	26.38787
125.25	26.85085
125.5	27.08288
125.75	27.17787
126	27.17417
126.25	27.08705
126.5	26.89664
126.75	26.66114
127	26.49639
127.25	26.75871
127.5	28.37392
127.75	30.98568
128	34.56129
128.25	39.05886
128.5	44.17402
128.75	48.34359
129	48.86022
129.25	47.53162
129.5	45.94566
129.75	44.43327
130	43.38463
130.25	42.78776
130.5	42.67937
130.75	42.95579
131	43.47828
131.25	44.11605
131.5	44.5047
131.75	44.22762
132	40.58789
132.25	32.03604
132.5	25.27216
132.75	21.29201
133	18.69304
133.25	16.69709
133.5	15.55733
133.75	14.78466
134	14.26581
134.25	13.9319
134.5	13.73815
134.75	13.63287
135	13.58113
135.25	13.55598
135.5	13.52409
135.75	13.47962
136	13.41974
136.25	13.34373
136.5	13.27422
136.75	13.2203
137	13.17448
137.25	13.12693
137.5	13.06735
137.75	12.99826
138	12.92735
138.25	12.86348
138.5	12.80837
138.75	12.74603
139	12.69225
139.25	12.67777
139.5	12.7295
139.75	12.84864
140	13.05167
140.25	13.31986
140.5	13.62718
140.75	13.92318
141	14.14818
141.25	14.2638
141.5	14.26485
141.75	14.17941
142	14.05472
142.25	13.93509
142.5	13.82912
142.75	13.74512
143	13.68209
143.25	13.639
143.5	13.61733
143.75	13.61651
144	13.63581
144.25	13.6678
144.5	13.70539
144.75	13.73837
145	13.76163
145.25	13.77289
145.5	13.77619
145.75	13.7747
146	13.77491
146.25	13.78323
146.5	13.80259
146.75	13.83206
147	13.87135
147.25	13.9153
147.5	13.96545
147.75	14.01624
148	14.06655
148.25	14.11666
148.5	14.16272
148.75	14.20299
149	14.2353
149.25	14.2528
149.5	14.24789
149.75	14.20662
150	14.11181
150.25	13.9559
150.5	13.74615
150.75	13.49571
151	13.24368
151.25	12.98866
151.5	12.75058
151.75	12.53399
152	12.33506
152.25	12.16277
152.5	11.99453
152.75	11.84879
153	11.74861
153.25	11.68599
153.5	11.63662
153.75	11.58286
154	11.52368
154.25	11.4732
154.5	11.44808
154.75	11.46361
155	11.52213
155.25	11.61085
155.5	11.73271
155.75	11.87571
156	12.04037
156.25	12.22799
156.5	12.41306
156.75	12.56495
157	12.6426
157.25	12.65422
157.5	12.62227
157.75	12.5687
158	12.50583
158.25	12.45443
158.5	12.4226
158.75	12.40802
159	12.4075
159.25	12.41607
159.5	12.42851
159.75	12.44349
160	12.45035
160.25	12.44467
160.5	12.43941
160.75	12.4614
161	12.52775
161.25	12.63509
161.5	12.77838
161.75	12.93335
162	13.096
162.25	13.25776
162.5	13.39607
162.75	13.50639
163	13.59702
163.25	13.66918
163.5	13.71356
163.75	13.71943
164	13.68943
164.25	13.65579
164.5	13.64325
164.75	13.65086
165	13.66494
165.25	13.66544
165.5	13.63606
165.75	13.5794
166	13.52756
166.25	13.49814
166.5	13.48767
166.75	13.47462
167	13.45067
167.25	13.40873
167.5	13.35661
167.75	13.30379
168	13.26271
168.25	13.23306
168.5	13.20356
168.75	13.16797
169	13.11605
169.25	13.04707
169.5	12.96397
169.75	12.87964
170	12.79997
170.25	12.73707
170.5	12.68731
170.75	12.62587
171	12.52885
171.25	12.40105
171.5	12.26582
171.75	12.1341
172	12.01531
172.25	11.91245
172.5	11.81663
172.75	11.71929
173	11.62249
173.25	11.54699
173.5	11.49394
173.75	11.46119
174	11.43893
174.25	11.41819
174.5	11.39122
174.75	11.35998
175	11.32517
175.25	11.3019
175.5	11.28991
175.75	11.28892
176	11.29403
176.25	11.29958
176.5	11.30453
176.75	11.30486
177	11.30465
177.25	11.30404
177.5	11.27787
177.75	11.26606
178	11.2844
178.25	11.30218
178.5	11.51253
178.75	11.52889
179	11.52467
179.25	11.42048
179.5	11.41189
179.75	11.59451
180	11.52087
180.25	11.6718
180.5	11.58382
180.75	11.46862
181	11.5033
181.25	11.62356
181.5	11.78064
181.75	11.85256
182	11.88256
182.25	11.87092
182.5	11.83086
182.75	11.75869
183	11.69378
183.25	11.63862
183.5	11.44561
183.75	11.19064
184	11.37464
184.25	11.5479
184.5	11.40307
184.75	11.38736
185	11.46655
185.25	11.61197
185.5	11.767
185.75	11.89437
186	11.98378
186.25	12.03629
186.5	12.06369
186.75	12.07217
187	12.0664
187.25	12.0563
187.5	12.05514
187.75	12.06952
188	12.08792
188.25	12.10002
188.5	12.09623
188.75	12.0807
189	12.07287
189.25	12.08636
189.5	12.12365
189.75	12.17463
190	12.23453
190.25	12.29787
190.5	12.35977
190.75	12.41991
191	12.47253
191.25	12.51984
191.5	12.55797
191.75	12.58586
192	12.60559
192.25	12.61642
192.5	12.61165
192.75	12.04481
193	9.993
193.25	7.91389
193.5	6.31964
193.75	5.23655
194	4.47921
194.25	3.99281
194.5	3.643
194.75	3.3916
195	3.20491
195.25	3.05942
195.5	2.95229
195.75	2.86106
196	2.78528
196.25	2.72088
196.5	2.66781
196.75	2.6214
197	2.58101
197.25	2.5447
197.5	2.51541
197.75	2.48571
198	2.4506
198.25	2.41136
198.5	2.38072
198.75	2.3602
199	2.34769
199.25	2.3398
199.5	2.33323
199.75	2.32516
200	2.31675
200.25	2.30884
200.5	2.30224
200.75	2.29535
201	2.28613
201.25	2.27835
201.5	2.27933
201.75	2.28851
202	2.30063
202.25	2.31211
202.5	2.32185
202.75	2.33083
203	2.33958
203.25	2.35041
203.5	2.36092
203.75	2.37276
204	2.38844
204.25	2.4038
204.5	2.42322
204.75	2.44216
205	2.46187
205.25	2.47933
205.5	2.49663
205.75	2.51637
206	2.53788
206.25	2.56428
206.5	2.60125
206.75	2.64602
207	2.68218
207.25	2.70287
207.5	2.71761
207.75	2.73201
208	2.74698
208.25	2.76607
208.5	2.78816
208.75	2.81164
209	2.83621
209.25	2.85895
209.5	2.87888
209.75	2.89743
210	2.91691
210.25	2.94071
210.5	2.96732
210.75	2.99022
211	3.00769
211.25	3.02378
211.5	3.04326
211.75	3.07042
212	3.10278
212.25	3.14006
212.5	3.18498
212.75	3.2301
213	3.27237
213.25	3.31326
213.5	3.35261
213.75	3.39073
214	3.42942
214.25	3.46782
214.5	3.50568
214.75	3.54287
215	3.57984
215.25	3.61496
215.5	3.65051
215.75	3.68644
216	3.72432
216.25	3.75962
216.5	3.7952
216.75	3.8317
217	3.86604
217.25	3.89893
217.5	3.93457
217.75	3.96972
218	4.00898
218.25	4.03807
218.5	4.07272
218.75	4.10935
219	4.14543
219.25	4.17637
219.5	4.20909
219.75	4.24813
220	4.2763
220.25	4.30366
220.5	4.34113
220.75	4.38876
221	4.42744
221.25	4.45688
221.5	4.47928
221.75	4.4956
222	4.51295
222.25	4.52585
222.5	4.52469
222.75	4.51649
223	4.51032
223.25	4.50938
223.5	4.369
223.75	3.65454
224	3.32185
224.25	2.76599
224.5	2.26981
224.75	1.98265
225	1.77173
225.25	1.617
225.5	1.49941
225.75	1.43088
226	1.37915
226.25	1.34662
226.5	1.34386
226.75	1.35448
227	1.32189
227.25	1.23815
227.5	1.15873
227.75	1.10292
228	1.06255
228.25	1.03786
228.5	1.02396
228.75	1.0203
229	1.01691
229.25	1.01134
229.5	1.00403
229.75	0.99401
230	0.98325
230.25	0.97347
230.5	0.96401
230.75	0.95702
231	0.9543
231.25	0.9529
231.5	0.95115
231.75	0.94845
232	0.9435
232.25	0.93853
232.5	0.93444
232.75	0.92891
233	0.92153
233.25	0.91667
233.5	0.91599
233.75	0.91732
234	0.91707
234.25	0.91516
234.5	0.91233
234.75	0.90678
235	0.9024
235.25	0.90021
235.5	0.89911
235.75	0.90025
236	0.90043
236.25	0.89856
236.5	0.90069
236.75	0.90807
237	0.91319
237.25	0.91374
237.5	0.90272
237.75	0.89662
238	0.88395
238.25	0.87168
238.5	0.86879
238.75	0.86863
239	0.86691
239.25	0.86707
239.5	0.86532
239.75	0.86306
240	0.86105
240.25	0.86067
240.5	0.86261
240.75	0.86776
241	0.86825
241.25	0.8692
241.5	0.87111
241.75	0.87112
242	0.86558
242.25	0.86065
242.5	0.85939
242.75	0.86066
243	0.86152
243.25	0.8627
243.5	0.86249
243.75	0.86453
244	0.86422
244.25	0.98129
244.5	0.94576
244.75	0.91404
245	0.89545
245.25	0.89298
245.5	0.90662
245.75	0.9071
246	0.87526
246.25	0.85208
246.5	0.83758
246.75	0.82576
247	0.84924
247.25	0.89704
247.5	0.8612
247.75	0.84093
248	0.82867
248.25	0.8237
248.5	0.82529
248.75	0.82789
249	0.82478
249.25	0.8228
249.5	0.83483
249.75	0.83844
250	0.84306
250.25	0.85036
250.5	0.85286
250.75	0.84866
251	0.84038
251.25	0.83217
251.5	0.82765
251.75	0.82468
252	0.8223
252.25	0.81553
252.5	0.81031
252.75	0.80751
253	0.80907
253.25	0.81467
253.5	0.8198
253.75	0.82158
254	0.81972
254.25	0.81473
254.5	0.81201
254.75	0.81303
255	0.81444
255.25	0.81392
255.5	0.81172
255.75	0.80886
256	0.80767
256.25	0.80666
256.5	0.80484
256.75	0.80134
257	0.79679
257.25	0.79322
257.5	0.78973
257.75	0.78857
258	0.78786
258.25	0.78861
258.5	0.79206
258.75	0.79617
259	0.80042
259.25	0.80355
259.5	0.80518
259.75	0.80677
260	0.8082
260.25	0.81201
260.5	0.81437
260.75	0.81448
261	0.81505
261.25	0.81627
261.5	0.81729
261.75	0.8166
262	0.81469
262.25	0.81571
262.5	0.81702
262.75	0.81735
263	0.81648
263.25	0.81548
263.5	0.8154
263.75	0.81631
264	0.81763
264.25	0.81767
264.5	0.81516
264.75	0.81196
265	0.81052
265.25	0.81434
265.5	0.81537
265.75	0.81605
266	0.81861
266.25	0.82185
266.5	0.82789
266.75	0.83307
267	0.83665
267.25	0.83901
267.5	0.83915
267.75	0.8377
268	0.83719
268.25	0.83742
268.5	0.83814
268.75	0.84015
269	0.84243
269.25	0.8432
269.5	0.84206
269.75	0.8397
270	0.83793
270.25	0.83687
270.5	0.83663
270.75	0.83699
271	0.83671
271.25	0.83619
271.5	0.83671
271.75	0.83826
272	0.84065
272.25	0.84278
272.5	0.84493
272.75	0.84696
273	0.84857
273.25	0.8495
273.5	0.85064
273.75	0.85144
274	0.85198
274.25	0.85226
274.5	0.85251
274.75	0.85286
275	0.85281
275.25	0.85221
275.5	0.85141
275.75	0.85038
276	0.84801
276.25	0.84478
276.5	0.84468
276.75	0.84449
277	0.8441
277.25	0.84315
277.5	0.8415
277.75	0.83846
278	0.83644
278.25	0.83361
278.5	0.82731
278.75	0.81987
279	0.81581
279.25	0.81597
279.5	0.81719
279.75	0.81942
280	0.82273
280.25	0.82649
280.5	0.8288
280.75	0.82996
281	0.83122
281.25	0.83215
281.5	0.83351
281.75	0.83553
282	0.83647
282.25	0.83467
282.5	0.83141
282.75	0.82731
283	0.82437
283.25	0.82341
283.5	0.82247
283.75	0.82144
284	0.82145
284.25	0.82235
284.5	0.82431
284.75	0.82643
285	0.82635
285.25	0.82404
285.5	0.82259
285.75	0.82012
286	0.81763
286.25	0.81611
286.5	0.81505
286.75	0.8143
287	0.81361
287.25	0.81286
287.5	0.81265
287.75	0.81268
288	0.8126
288.25	0.81239
288.5	0.81155
288.75	0.81015
289	0.80878
289.25	0.80742
289.5	0.80682
289.75	0.80677
290	0.80722
290.25	0.80781
290.5	0.80588
290.75	0.80302
291	0.80066
291.25	0.79916
291.5	0.79864
291.75	0.79837
292	0.7978
292.25	0.79703
292.5	0.79481
292.75	0.79051
293	0.78641
293.25	0.78425
293.5	0.78411
293.75	0.78444
294	0.78592
294.25	0.78772
294.5	0.78916
294.75	0.79026
295	0.79079
295.25	0.79064
295.5	0.7875
295.75	0.78134
296	0.77457
296.25	0.76826
296.5	0.76341
296.75	0.7595
297	0.7566
297.25	0.75838
297.5	0.76623
297.75	0.77536
298	0.7789
298.25	0.77746
298.5	0.77296
298.75	0.76889
299	0.76807
299.25	0.76954
299.5	0.77404
299.75	0.77922
300	0.78028
300.25	0.77921
300.5	0.77717
300.75	0.77506
301	0.7752
301.25	0.78052
301.5	0.78293
301.75	0.77954
302	0.77592
302.25	0.77556
302.5	0.77856
302.75	0.78158
303	0.78518
303.25	0.78866
303.5	0.79195
303.75	0.79465
304	0.79488
304.25	0.79198
304.5	0.79048
304.75	0.79405
305	0.80085
305.25	0.80469
305.5	0.80394
305.75	0.80356
306	0.80463
306.25	0.80656
306.5	0.80859
306.75	0.80792
307	0.8047
307.25	0.80222
307.5	0.79964
307.75	0.79806
308	0.79674
308.25	0.79446
308.5	0.79049
308.75	0.78722
309	0.78649
309.25	0.78801
309.5	0.7882
309.75	0.78648
310	0.7856
310.25	0.78575
310.5	0.78722
310.75	0.78995
311	0.79355
311.25	0.7961
311.5	0.79683
311.75	0.79722
312	0.7985
312.25	0.80084
312.5	0.80385
312.75	0.80582
313	0.80702
313.25	0.80868
313.5	0.81044
313.75	0.81045
314	0.81126
314.25	0.81106
314.5	0.80949
314.75	0.80808
315	0.80847
315.25	0.80972
315.5	0.81084
315.75	0.81156
316	0.81201
316.25	0.81222
316.5	0.8125
316.75	0.81241
317	0.81118
317.25	0.80957
317.5	0.80799
317.75	0.80746
318	0.8079
318.25	0.8088
318.5	0.80969
318.75	0.81031
319	0.80989
319.25	0.8076
319.5	0.80379
319.75	0.80119
320	0.80183
320.25	0.80482
320.5	0.80819
320.75	0.81122
321	0.81355
321.25	0.81517
321.5	0.81652
321.75	0.81794
322	0.81919
322.25	0.82035
322.5	0.82128
322.75	0.82339
323	0.82679
323.25	0.83008
323.5	0.8313
323.75	0.83071
324	0.82885
324.25	0.82633
324.5	0.82372
324.75	0.82153
325	0.82048
325.25	0.81961
325.5	0.81885
325.75	0.81774
326	0.81669
326.25	0.81602
326.5	0.81538
326.75	0.81515
327	0.81473
327.25	0.81417
327.5	0.81332
327.75	0.81063
328	0.80738
328.25	0.8048
328.5	0.80302
328.75	0.80119
329	0.79946
329.25	0.79763
329.5	0.79602
329.75	0.79452
330	0.79345
330.25	0.79281
330.5	0.79243
330.75	0.79271
331	0.79287
331.25	0.79292
331.5	0.79253
331.75	0.79197
332	0.79102
332.25	0.789
332.5	0.78646
332.75	0.78474
333	0.78384
333.25	0.78352
333.5	0.78353
333.75	0.78433
334	0.78529
334.25	0.78649
334.5	0.78815
334.75	0.78988
335	0.792
335.25	0.79416
335.5	0.79563
335.75	0.79645
336	0.79683
336.25	0.79798
336.5	0.7979
336.75	0.79801
337	0.79745
337.25	0.79679
337.5	0.79569
337.75	0.79434
338	0.79301
338.25	0.79165
338.5	0.79067
338.75	0.7899
339	0.7893
339.25	0.78844
339.5	0.78834
339.75	0.78862
340	0.78861
340.25	0.78826
340.5	0.78814
340.75	0.78833
341	0.78901
341.25	0.78987
341.5	0.79101
341.75	0.79086
342	0.7907
342.25	0.79039
342.5	0.79034
342.75	0.78993
343	0.78956
343.25	0.78836
343.5	0.78561
343.75	0.78348
344	0.78318
344.25	0.78458
344.5	0.78714
344.75	0.78996
345	0.7914
345.25	0.79088
345.5	0.78939
345.75	0.78803
346	0.78659
346.25	0.78559
346.5	0.78493
346.75	0.78451
347	0.78414
347.25	0.7837
347.5	0.78308
347.75	0.78246
348	0.78112
348.25	0.7784
348.5	0.77556
348.75	0.77327
349	0.77282
349.25	0.77373
349.5	0.7756
349.75	0.77731
350	0.77879
350.25	0.77997
350.5	0.78103
350.75	0.78112
351	0.7805
351.25	0.78055
351.5	0.78239
351.75	0.78441
352	0.78623
352.25	0.7873
352.5	0.78752
352.75	0.78799
353	0.78833
353.25	0.78756
353.5	0.78688
353.75	0.78691
354	0.78718
354.25	0.78752
354.5	0.78692
354.75	0.78736
355	0.78799
355.25	0.78875
355.5	0.78954
355.75	0.79082
356	0.7922
356.25	0.79262
356.5	0.79181
356.75	0.7908
357	0.78975
357.25	0.78889
357.5	0.78743
357.75	0.78581
358	0.78381
358.25	0.78169
358.5	0.77933
358.75	0.77698
359	0.77488
359.25	0.7731
359.5	0.77163
359.75	0.77018
360	0.76898
360.25	0.76783
360.5	0.76654
360.75	0.76513
361	0.76449
361.25	0.76435
361.5	0.76458
361.75	0.76396
362	0.76114
362.25	0.75737
362.5	0.75422
362.75	0.75302
363	0.7533
363.25	0.75395
363.5	0.75413
363.75	0.75361
364	0.75182
364.25	0.74878
364.5	0.74743
364.75	0.74677
365	0.74663
365.25	0.74722
365.5	0.7484
365.75	0.74929
366	0.75082
366.25	0.75245
366.5	0.75268
366.75	0.75228
367	0.74993
367.25	0.74574
367.5	0.74223
367.75	0.74213
368	0.74396
368.25	0.74425
368.5	0.74199
368.75	0.73955
369	0.73859
369.25	0.73861
369.5	0.73978
369.75	0.74145
370	0.74271
370.25	0.7427
370.5	0.74198
370.75	0.7406
371	0.7385
371.25	0.73631
371.5	0.73406
371.75	0.73191
372	0.72924
372.25	0.72632
372.5	0.72326
372.75	0.72041
373	0.71864
373.25	0.71751
373.5	0.71706
373.75	0.71662
374	0.71683
374.25	0.71724
374.5	0.71671
374.75	0.7152
375	0.71389
375.25	0.71317
375.5	0.71274
375.75	0.71308
376	0.71307
376.25	0.71232
376.5	0.71054
376.75	0.70828
377	0.70547
377.25	0.70242
377.5	0.69828
377.75	0.69275
378	0.68848
378.25	0.6873
378.5	0.68915
378.75	0.69288
379	0.69705
379.25	0.69939
379.5	0.702
379.75	0.70428
380	0.7044
380.25	0.70396
380.5	0.70449
380.75	0.70814
381	0.70887
381.25	0.70448
381.5	0.70051
381.75	0.69878
382	0.69775
382.25	0.69538
382.5	0.69056
382.75	0.68552
383	0.68103
383.25	0.67703
383.5	0.67512
383.75	0.67473
384	0.67434
384.25	0.67496
384.5	0.67736
384.75	0.67976
385	0.68039
385.25	0.67949
385.5	0.67708
385.75	0.67408
386	0.67188
386.25	0.67011
386.5	0.66768
386.75	0.66543
387	0.66412
387.25	0.66345
387.5	0.66337
387.75	0.66359
388	0.66367
388.25	0.66335
388.5	0.66294
388.75	0.66208
389	0.6613
389.25	0.66041
389.5	0.65958
389.75	0.65895
390	0.65903
390.25	0.65945
390.5	0.65959
390.75	0.65756
391	0.65446
391.25	0.65179
391.5	0.6488
391.75	0.64683
392	0.6453
392.25	0.6448
392.5	0.64537
392.75	0.64646
393	0.6479
393.25	0.64717
393.5	0.64663
393.75	0.6464
394	0.64537
394.25	0.64329
394.5	0.63996
394.75	0.63582
395	0.63259
395.25	0.63172
395.5	0.63257
395.75	0.63451
396	0.63731
396.25	0.64137
396.5	0.6442
396.75	0.64473
397	0.64365
397.25	0.64081
397.5	0.63689
397.75	0.63327
398	0.62994
398.25	0.62588
398.5	0.62155
398.75	0.6182
399	0.61666
399.25	0.61604
399.5	0.61593
399.75	0.61682
400	0.61911
400.25	0.62161
400.5	0.6235
400.75	0.62434
401	0.6235
401.25	0.62245
401.5	0.62142
401.75	0.62097
402	0.62113
402.25	0.62134
402.5	0.62023
402.75	0.61861
403	0.61819
403.25	0.61887
403.5	0.61901
403.75	0.61831
404	0.61805
404.25	0.61891
404.5	0.61993
404.75	0.61851
405	0.6158
405.25	0.61298
405.5	0.61048
405.75	0.60847
406	0.60668
406.25	0.60506
406.5	0.60399
406.75	0.60363
407	0.60405
407.25	0.604
407.5	0.60358
407.75	0.60429
408	0.60513
408.25	0.60511
408.5	0.60582
408.75	0.60822
409	0.61146
409.25	0.61149
409.5	0.60926
409.75	0.60689
410	0.60544
410.25	0.60432
410.5	0.60331
410.75	0.60325
411	0.60429
411.25	0.60553
411.5	0.60678
411.75	0.60754
412	0.60843
412.25	0.60996
412.5	0.61051
412.75	0.61084
413	0.60997
413.25	0.60878
413.5	0.60759
413.75	0.60592
414	0.60525
414.25	0.60702
414.5	0.60463
414.75	0.60418
415	0.60412
415.25	0.60364
415.5	0.6023
415.75	0.60131
416	0.60085
416.25	0.60023
416.5	0.59916
416.75	0.59843
417	0.59834
417.25	0.59814
417.5	0.59741
417.75	0.59593
418	0.59423
418.25	0.59303
418.5	0.59318
418.75	0.59308
419	0.59271
419.25	0.59165
419.5	0.58835
419.75	0.5873
420	0.58879
420.25	0.59244
420.5	0.5973
420.75	0.59992
421	0.59961
421.25	0.59913
421.5	0.59969
421.75	0.60036
422	0.5994
422.25	0.59621
422.5	0.59103
422.75	0.58536
423	0.58118
423.25	0.57938
423.5	0.57933
423.75	0.58013
424	0.58104
424.25	0.5833
424.5	0.58663
424.75	0.58984
425	0.59206
425.25	0.59276
425.5	0.59266
425.75	0.59256
426	0.59158
426.25	0.59038
426.5	0.58934
426.75	0.58867
427	0.58831
427.25	0.58828
427.5	0.5878
427.75	0.58724
428	0.58651
428.25	0.58492
428.5	0.58372
428.75	0.5826
429	0.58292
429.25	0.58461
429.5	0.58577
429.75	0.58565
430	0.58462
430.25	0.58329
430.5	0.58195
430.75	0.58084
431	0.58019
431.25	0.57962
431.5	0.57935
431.75	0.5795
432	0.57951
432.25	0.57954
432.5	0.57928
432.75	0.57857
433	0.57699
433.25	0.57441
433.5	0.57099
433.75	0.56782
434	0.56582
434.25	0.56548
434.5	0.56655
434.75	0.56815
435	0.56967
435.25	0.57061
435.5	0.57183
435.75	0.57365
436	0.57517
436.25	0.5757
436.5	0.57476
436.75	0.57372
437	0.57276
437.25	0.5722
437.5	0.57168
437.75	0.57145
438	0.57116
438.25	0.5705
438.5	0.56933
438.75	0.56813
439	0.56724
439.25	0.56687
439.5	0.56684
439.75	0.56674
440	0.56581
440.25	0.56339
440.5	0.56059
440.75	0.55802
441	0.55707
441.25	0.55675
441.5	0.55629
441.75	0.55651
442	0.558
442.25	0.56056
442.5	0.56304
442.75	0.56472
443	0.56572
443.25	0.56642
443.5	0.56666
443.75	0.56677
444	0.5664
444.25	0.56601
444.5	0.56524
444.75	0.56417
445	0.56329
445.25	0.56225
445.5	0.56124
445.75	0.56045
446	0.5599
446.25	0.5594
446.5	0.55886
446.75	0.55883
447	0.55876
447.25	0.55839
447.5	0.55802
447.75	0.55803
448	0.55823
448.25	0.5581
448.5	0.55798
448.75	0.55794
449	0.55753
449.25	0.5562
449.5	0.55518
449.75	0.55535
450	0.55536
450.25	0.55514
450.5	0.55524
450.75	0.55585
451	0.55664
451.25	0.55709
451.5	0.5568
451.75	0.55651
452	0.55652
452.25	0.55588
452.5	0.55413
452.75	0.55347
453	0.55398
453.25	0.55618
453.5	0.55787
453.75	0.55822
454	0.55664
454.25	0.55297
454.5	0.54927
454.75	0.54756
455	0.54802
455.25	0.54979
455.5	0.55136
455.75	0.55237
456	0.55259
456.25	0.55218
456.5	0.55091
456.75	0.55094
457	0.55183
457.25	0.55243
457.5	0.55188
457.75	0.55063
458	0.54838
458.25	0.54706
458.5	0.54831
458.75	0.54992
459	0.54973
459.25	0.54924
459.5	0.54981
459.75	0.55157
460	0.55252
460.25	0.55174
460.5	0.54858
460.75	0.54466
461	0.54227
461.25	0.54314
461.5	0.54688
461.75	0.55195
462	0.55613
462.25	0.55735
462.5	0.55768
462.75	0.55739
463	0.55703
463.25	0.55675
463.5	0.55615
463.75	0.55503
464	0.55416
464.25	0.55344
464.5	0.5531
464.75	0.5523
465	0.55044
465.25	0.54753
465.5	0.54415
465.75	0.54073
466	0.53795
466.25	0.53656
466.5	0.53581
466.75	0.53603
467	0.53685
467.25	0.53753
467.5	0.53799
467.75	0.53807
468	0.53825
468.25	0.53922
468.5	0.54309
468.75	0.54736
469	0.54986
469.25	0.54949
469.5	0.54757
469.75	0.54556
470	0.54387
470.25	0.54204
470.5	0.53926
470.75	0.53774
471	0.53752
471.25	0.53823
471.5	0.53857
471.75	0.5379
472	0.53615
472.25	0.53575
472.5	0.53553
472.75	0.53312
473	0.52982
473.25	0.52735
473.5	0.52677
473.75	0.52832
474	0.53138
474.25	0.53355
474.5	0.5347
474.75	0.53497
475	0.53419
475.25	0.53355
475.5	0.53294
475.75	0.53336
476	0.53155
476.25	0.53088
476.5	0.53284
476.75	0.53593
477	0.53639
477.25	0.5358
477.5	0.53421
477.75	0.53193
478	0.52984
478.25	0.52818
478.5	0.52723
478.75	0.52809
479	0.52917
479.25	0.52987
479.5	0.53122
479.75	0.53207
480	0.53252
480.25	0.533
480.5	0.53197
480.75	0.52839
481	0.52406
481.25	0.52127
481.5	0.52087
481.75	0.52343
482	0.52639
482.25	0.52738
482.5	0.52666
482.75	0.52527
483	0.5237
483.25	0.5217
483.5	0.52014
483.75	0.51946
484	0.51892
484.25	0.51885
484.5	0.51822
484.75	0.5176
485	0.51746
485.25	0.51739
485.5	0.51724
485.75	0.51668
486	0.51594
486.25	0.51519
486.5	0.51408
486.75	0.51245
487	0.51002
487.25	0.50783
487.5	0.5072
487.75	0.50735
488	0.50781
488.25	0.50855
488.5	0.50867
488.75	0.50881
489	0.5095
489.25	0.51043
489.5	0.50967
489.75	0.50904
490	0.50934
490.25	0.50994
490.5	0.51032
490.75	0.50996
491	0.50946
491.25	0.5093
491.5	0.50947
491.75	0.50977
492	0.50974
492.25	0.50988
492.5	0.50993
492.75	0.50997
493	0.50993
493.25	0.50983
493.5	0.50871
493.75	0.50765
494	0.50587
494.25	0.50457
494.5	0.50358
494.75	0.50214
495	0.50019
495.25	0.49822
495.5	0.49676
495.75	0.49566
496	0.4959
496.25	0.4959
496.5	0.49572
496.75	0.49402
497	0.49292
497.25	0.49328
497.5	0.49468
497.75	0.49555
498	0.49587
498.25	0.49556
498.5	0.49363
498.75	0.49185
499	0.49079
499.25	0.49121
499.5	0.49584
499.75	0.51041
500	0.53301
500.25	0.55889
500.5	0.58456
500.75	0.60989
501	0.63339
501.25	0.65511
501.5	0.67633
501.75	0.69643
502	0.7154
502.25	0.73317
502.5	0.75071
502.75	0.76738
503	0.78308
503.25	0.79826
503.5	0.81243
503.75	0.82674
504	0.84034
504.25	0.8534
504.5	0.86611
504.75	0.87836
505	0.88948
505.25	0.90041
505.5	0.91006
505.75	0.91978
506	0.92856
506.25	0.93695
506.5	0.94494
506.75	0.95258
507	0.95949
507.25	0.96555
507.5	0.97057
507.75	0.9749
508	0.97836
508.25	0.98155
508.5	0.98435
508.75	0.98672
509	0.98891
509.25	0.98204
509.5	0.93004
509.75	0.84331
510	0.75884
510.25	0.69354
510.5	0.64765
510.75	0.61361
511	0.58811
511.25	0.56956
511.5	0.55596
511.75	0.54574
512	0.53822
512.25	0.53213
512.5	0.52701
512.75	0.52277
513	0.51896
513.25	0.51524
513.5	0.51291
513.75	0.51051
514	0.50829
514.25	0.5095
514.5	0.51805
514.75	0.53358
515	0.55176
515.25	0.57064
515.5	0.58839
515.75	0.60153
516	0.60902
516.25	0.61232
516.5	0.61381
516.75	0.61761
517	0.63798
517.25	0.73309
517.5	1.06102
517.75	1.48948
518	1.51822
518.25	1.27603
518.5	1.05662
518.75	0.91545
519	0.82914
519.25	0.77583
519.5	0.74192
519.75	0.72174
520	0.71342
520.25	0.71309
520.5	0.71826
520.75	0.72897
521	0.74371
521.25	0.75802
521.5	0.76763
521.75	0.77427
522	0.79289
522.25	0.85517
522.5	0.99502
522.75	1.18966
523	1.37992
523.25	1.51079
523.5	1.5567
523.75	1.51061
524	1.40414
524.25	1.28345
524.5	1.17791
524.75	1.0962
525	1.03682
525.25	1.00363
525.5	0.99925
525.75	1.03015
526	1.1037
526.25	1.21715
526.5	1.35041
526.75	1.47334
527	1.57031
527.25	1.64522
527.5	1.70572
527.75	1.76014
528	1.81931
528.25	1.90547
528.5	2.04164
528.75	2.24122
529	2.47231
529.25	2.67983
529.5	2.76329
529.75	2.67913
530	2.44487
530.25	2.14117
530.5	1.8365
530.75	1.58096
531	1.3784
531.25	1.22826
531.5	1.11558
531.75	1.03197
532	0.96674
532.25	0.92004
532.5	0.88918
532.75	0.87433
533	0.86907
533.25	0.86481
533.5	0.85324
533.75	0.83033
534	0.79819
534.25	0.7653
534.5	0.74096
534.75	0.73447
535	0.7516
535.25	0.79631
535.5	0.86069
535.75	0.92766
536	0.9764
536.25	0.9882
536.5	0.96168
536.75	0.90462
537	0.83341
537.25	0.7619
537.5	0.69982
537.75	0.65148
538	0.61741
538.25	0.59576
538.5	0.5859
538.75	0.58772
539	0.60111
539.25	0.6252
539.5	0.65676
539.75	0.69313
540	0.72788
540.25	0.75647
540.5	0.77692
540.75	0.78737
541	0.7867
541.25	0.77388
541.5	0.75033
541.75	0.7204
542	0.68985
542.25	0.66506
542.5	0.65967
542.75	0.70908
543	0.90532
543.25	1.48136
543.5	2.85221
543.75	5.37422
544	8.75281
544.25	12.00103
544.5	14.24341
544.75	15.16131
545	14.90802
545.25	13.78942
545.5	12.15777
545.75	10.45651
546	8.72425
546.25	7.13802
546.5	5.7561
546.75	4.5628
547	3.61799
547.25	2.83355
547.5	2.22336
547.75	1.7587
548	1.4114
548.25	1.15867
548.5	0.97714
548.75	0.84877
549	0.7596
549.25	0.69795
549.5	0.65588
549.75	0.62735
550	0.60735
550.25	0.59328
550.5	0.58303
550.75	0.57584
551	0.57056
551.25	0.56634
551.5	0.56206
551.75	0.55798
552	0.55486
552.25	0.55272
552.5	0.55152
552.75	0.55136
553	0.5517
553.25	0.55278
553.5	0.55433
553.75	0.55579
554	0.55763
554.25	0.55933
554.5	0.56125
554.75	0.56268
555	0.56298
555.25	0.56252
555.5	0.56158
555.75	0.56044
556	0.55877
556.25	0.55573
556.5	0.55144
556.75	0.54623
557	0.54066
557.25	0.53512
557.5	0.52999
557.75	0.52548
558	0.52191
558.25	0.51966
558.5	0.51882
558.75	0.51729
559	0.51791
559.25	0.52175
559.5	0.5292
559.75	0.54066
560	0.55538
560.25	0.57215
560.5	0.59011
560.75	0.6074
561	0.62189
561.25	0.63156
561.5	0.63563
561.75	0.63532
562	0.63174
562.25	0.62563
562.5	0.61733
562.75	0.60783
563	0.59751
563.25	0.58865
563.5	0.58232
563.75	0.57749
564	0.57427
564.25	0.57257
564.5	0.57163
564.75	0.57251
565	0.57504
565.25	0.57847
565.5	0.58286
565.75	0.58762
566	0.59219
566.25	0.5965
566.5	0.6011
566.75	0.60658
567	0.61244
567.25	0.61864
567.5	0.62515
567.75	0.63194
568	0.63904
568.25	0.64594
568.5	0.65287
568.75	0.65982
569	0.6666
569.25	0.67255
569.5	0.67775
569.75	0.68252
570	0.68727
570.25	0.69179
570.5	0.69567
570.75	0.69928
571	0.70328
571.25	0.70916
571.5	0.71893
571.75	0.73536
572	0.76001
572.25	0.79585
572.5	0.84304
572.75	0.89998
573	0.96482
573.25	1.03219
573.5	1.09176
573.75	1.13832
574	1.16978
574.25	1.18483
574.5	1.18403
574.75	1.17432
575	1.15797
575.25	1.13829
575.5	1.12167
575.75	1.11354
576	1.11829
576.25	1.13888
576.5	1.17364
576.75	1.22019
577	1.27746
577.25	1.33877
577.5	1.3931
577.75	1.44625
578	1.49933
578.25	1.54946
578.5	1.58384
578.75	1.603
579	1.61152
579.25	1.61309
579.5	1.60351
579.75	1.57914
580	1.55036
580.25	1.51406
580.5	1.47183
580.75	1.42055
581	1.36209
581.25	1.30344
581.5	1.24421
581.75	1.18418
582	1.12346
582.25	1.0608
582.5	0.99838
582.75	0.9364
583	0.87663
583.25	0.82232
583.5	0.77333
583.75	0.73021
584	0.6934
584.25	0.66234
584.5	0.63748
584.75	0.61889
585	0.60559
585.25	0.59591
585.5	0.58923
585.75	0.58538
586	0.58402
586.25	0.58474
586.5	0.58727
586.75	0.59129
587	0.59714
587.25	0.604
587.5	0.61063
587.75	0.61782
588	0.62597
588.25	0.63547
588.5	0.64514
588.75	0.65699
589	0.66847
589.25	0.68074
589.5	0.69218
589.75	0.70421
590	0.71759
590.25	0.73269
590.5	0.75122
590.75	0.77459
591	0.8013
591.25	0.83484
591.5	0.87418
591.75	0.9191
592	0.96913
592.25	1.02256
592.5	1.07813
592.75	1.13554
593	1.19387
593.25	1.24952
593.5	1.30306
593.75	1.3536
594	1.39555
594.25	1.42367
594.5	1.44127
594.75	1.45221
595	1.4595
595.25	1.46677
595.5	1.47345
595.75	1.47953
596	1.48855
596.25	1.50224
596.5	1.52292
596.75	1.54957
597	1.57862
597.25	1.60789
597.5	1.63132
597.75	1.64828
598	1.65503
598.25	1.64786
598.5	1.62716
598.75	1.59366
599	1.54814
599.25	1.49391
599.5	1.43312
599.75	1.36982
600	1.30586
600.25	1.24507
600.5	1.18867
600.75	1.13873
601	1.096
601.25	1.06173
601.5	1.03812
601.75	1.02498
602	1.02256
602.25	1.03025
602.5	1.04713
602.75	1.07238
603	1.10319
603.25	1.13279
603.5	1.14655
603.75	1.14907
604	1.15408
604.25	1.16546
604.5	1.18084
604.75	1.19772
605	1.21065
605.25	1.21835
605.5	1.21747
605.75	1.2073
606	1.18811
606.25	1.15926
606.5	1.11965
606.75	1.07056
607	1.01624
607.25	0.9633
607.5	0.91511
607.75	0.87375
608	0.83846
608.25	0.80774
608.5	0.78082
608.75	0.75711
609	0.73653
609.25	0.71846
609.5	0.70184
609.75	0.68649
610	0.67284
610.25	0.66039
610.5	0.64834
610.75	0.63725
611	0.62758
611.25	0.62039
611.5	0.61504
611.75	0.6103
612	0.60465
612.25	0.59839
612.5	0.59283
612.75	0.58803
613	0.58416
613.25	0.58213
613.5	0.58186
613.75	0.58281
614	0.58407
614.25	0.58558
614.5	0.58671
614.75	0.58657
615	0.58706
615.25	0.58766
615.5	0.58818
615.75	0.58758
616	0.58675
616.25	0.58605
616.5	0.58525
616.75	0.58342
617	0.58097
617.25	0.57813
617.5	0.57522
617.75	0.57174
618	0.5674
618.25	0.56299
618.5	0.55825
618.75	0.55407
619	0.54973
619.25	0.5453
619.5	0.54063
619.75	0.53647
620	0.5333
620.25	0.53155
620.5	0.53051
620.75	0.53079
621	0.53212
621.25	0.53442
621.5	0.53713
621.75	0.54053
622	0.54479
622.25	0.54941
622.5	0.55406
622.75	0.55917
623	0.56497
623.25	0.57133
623.5	0.57847
623.75	0.58575
624	0.59304
624.25	0.60036
624.5	0.60672
624.75	0.61459
625	0.62334
625.25	0.62952
625.5	0.63659
625.75	0.64231
626	0.64949
626.25	0.65651
626.5	0.66237
626.75	0.66826
627	0.67547
627.25	0.68292
627.5	0.68994
627.75	0.69457
628	0.69647
628.25	0.69551
628.5	0.69208
628.75	0.68695
629	0.68312
629.25	0.67881
629.5	0.67443
629.75	0.67073
630	0.66708
630.25	0.66312
630.5	0.65867
630.75	0.65377
631	0.64874
631.25	0.6428
631.5	0.63557
631.75	0.62796
632	0.62033
632.25	0.61323
632.5	0.6063
632.75	0.6002
633	0.59404
633.25	0.58812
633.5	0.58268
633.75	0.57839
634	0.57471
634.25	0.57072
634.5	0.56631
634.75	0.56123
635	0.55572
635.25	0.55034
635.5	0.54531
635.75	0.54072
636	0.53662
636.25	0.53251
636.5	0.52747
636.75	0.52411
637	0.5192
637.25	0.51544
637.5	0.51136
637.75	0.50754
638	0.50371
638.25	0.50005
638.5	0.49673
638.75	0.49328
639	0.4906
639.25	0.48733
639.5	0.48402
639.75	0.48058
640	0.47677
640.25	0.4729
640.5	0.46926
640.75	0.46562
641	0.46207
641.25	0.45878
641.5	0.45623
641.75	0.45442
642	0.45379
642.25	0.45316
642.5	0.45163
642.75	0.45008
643	0.44896
643.25	0.44837
643.5	0.44837
643.75	0.44855
644	0.4488
644.25	0.44914
644.5	0.44982
644.75	0.45101
645	0.45253
645.25	0.45462
645.5	0.45708
645.75	0.4598
646	0.46287
646.25	0.46644
646.5	0.46995
646.75	0.47374
647	0.47773
647.25	0.48223
647.5	0.48671
647.75	0.4916
648	0.497
648.25	0.50257
648.5	0.50831
648.75	0.51419
649	0.5196
649.25	0.52543
649.5	0.53121
649.75	0.53698
650	0.54273
650.25	0.54879
650.5	0.55494
650.75	0.56147
651	0.56796
651.25	0.57439
651.5	0.58032
651.75	0.58559
652	0.58962
652.25	0.59234
652.5	0.59382
652.75	0.59442
653	0.5942
653.25	0.59347
653.5	0.59242
653.75	0.59119
654	0.59041
654.25	0.59033
654.5	0.59026
654.75	0.59008
655	0.58926
655.25	0.588
655.5	0.5865
655.75	0.58515
656	0.58422
656.25	0.58315
656.5	0.58127
656.75	0.57778
657	0.57338
657.25	0.56941
657.5	0.56645
657.75	0.56402
658	0.56183
658.25	0.55925
658.5	0.55618
658.75	0.55285
659	0.54977
659.25	0.54686
659.5	0.54468
659.75	0.54337
660	0.54253
660.25	0.54256
660.5	0.54348
660.75	0.54551
661	0.54833
661.25	0.55167
661.5	0.55636
661.75	0.5614
662	0.56688
662.25	0.57234
662.5	0.57794
662.75	0.58445
663	0.59366
663.25	0.60734
663.5	0.62522
663.75	0.64543
664	0.66704
664.25	0.6878
664.5	0.70772
664.75	0.72741
665	0.7493
665.25	0.77284
665.5	0.79858
665.75	0.82641
666	0.85229
666.25	0.87233
666.5	0.88679
666.75	0.89808
667	0.90945
667.25	0.92391
667.5	0.93974
667.75	0.95222
668	0.95939
668.25	0.95953
668.5	0.95415
668.75	0.94643
669	0.93743
669.25	0.92779
669.5	0.91814
669.75	0.90815
670	0.89791
670.25	0.88704
670.5	0.87708
670.75	0.86882
671	0.86406
671.25	0.85983
671.5	0.8543
671.75	0.84701
672	0.83906
672.25	0.82995
672.5	0.82228
672.75	0.81648
673	0.81421
673.25	0.81568
673.5	0.8225
673.75	0.83387
674	0.84818
674.25	0.86409
674.5	0.87812
674.75	0.88797
675	0.89267
675.25	0.89435
675.5	0.89531
675.75	0.89814
676	0.90583
676.25	0.91903
676.5	0.93764
676.75	0.95839
677	0.97522
677.25	0.98458
677.5	0.9846
677.75	0.97623
678	0.96466
678.25	0.95567
678.5	0.95208
678.75	0.95226
679	0.95286
679.25	0.95079
679.5	0.94528
679.75	0.93715
680	0.92776
680.25	0.91855
680.5	0.90977
680.75	0.90174
681	0.89407
681.25	0.88592
681.5	0.87713
681.75	0.86795
682	0.85905
682.25	0.85299
682.5	0.84909
682.75	0.84636
683	0.844
683.25	0.84149
683.5	0.83796
683.75	0.83189
684	0.82228
684.25	0.81034
684.5	0.79816
684.75	0.78748
685	0.77775
685.25	0.76772
685.5	0.75772
685.75	0.74836
686	0.7397
686.25	0.73065
686.5	0.7197
686.75	0.70805
687	0.6964
687.25	0.68502
687.5	0.67239
687.75	0.66015
688	0.64927
688.25	0.63973
688.5	0.631
688.75	0.62248
689	0.61367
689.25	0.60478
689.5	0.59599
689.75	0.58745
690	0.57909
690.25	0.57097
690.5	0.56325
690.75	0.55499
691	0.54718
691.25	0.53939
691.5	0.53259
691.75	0.52618
692	0.51974
692.25	0.51442
692.5	0.50973
692.75	0.50551
693	0.50138
693.25	0.49794
693.5	0.49464
693.75	0.49148
694	0.48824
694.25	0.48532
694.5	0.48296
694.75	0.48116
695	0.47942
695.25	0.47784
695.5	0.47629
695.75	0.4749
696	0.47382
696.25	0.47317
696.5	0.47281
696.75	0.47265
697	0.47261
697.25	0.47202
697.5	0.47131
697.75	0.47019
698	0.46908
698.25	0.46677
698.5	0.464
698.75	0.46085
699	0.45758
699.25	0.45425
699.5	0.45097
699.75	0.44784
700	0.44463
700.25	0.44133
700.5	0.4382
700.75	0.43526
701	0.43257
701.25	0.42996
701.5	0.42785
701.75	0.42672
702	0.42604
702.25	0.42599
702.5	0.42678
702.75	0.42889
703	0.43258
703.25	0.43855
703.5	0.44573
703.75	0.45448
704	0.46523
704.25	0.47945
704.5	0.49688
704.75	0.5175
705	0.54204
705.25	0.56964
705.5	0.60013
705.75	0.63306
706	0.66905
706.25	0.70827
706.5	0.7496
706.75	0.79227
707	0.83674
707.25	0.87661
707.5	0.91402
707.75	0.9493
708	0.97906
708.25	1.00564
708.5	1.02981
708.75	1.0534
709	1.07649
709.25	1.09963
709.5	1.12225
709.75	1.14368
710	1.16091
710.25	1.17197
710.5	1.17654
710.75	1.17778
711	1.1786
711.25	1.18195
711.5	1.18857
711.75	1.19832
712	1.20886
712.25	1.21956
712.5	1.22926
712.75	1.23805
713	1.24663
713.25	1.25646
713.5	1.26921
713.75	1.28467
714	1.3008
714.25	1.31342
714.5	1.32186
714.75	1.32662
715	1.3299
715.25	1.33249
715.5	1.33393
715.75	1.33696
716	1.33891
716.25	1.33902
716.5	1.33671
716.75	1.33435
717	1.33128
717.25	1.32626
717.5	1.32148
717.75	1.31797
718	1.31477
718.25	1.30969
718.5	1.30036
718.75	1.28764
719	1.27029
719.25	1.24853
719.5	1.22332
719.75	1.19656
720	1.17268
720.25	1.15607
720.5	1.14606
720.75	1.13743
721	1.12484
721.25	1.10569
721.5	1.08071
721.75	1.05254
722	1.02714
722.25	1.00804
722.5	0.99545
722.75	0.99023
723	0.99033
723.25	0.99355
723.5	0.99581
723.75	0.99528
724	0.99152
724.25	0.986
724.5	0.97698
724.75	0.96514
725	0.95168
725.25	0.9369
725.5	0.92093
725.75	0.9042
726	0.88765
726.25	0.8725
726.5	0.85827
726.75	0.84597
727	0.83502
727.25	0.8256
727.5	0.81694
727.75	0.8083
728	0.79965
728.25	0.79157
728.5	0.78377
728.75	0.77542
729	0.76688
729.25	0.75807
729.5	0.74826
729.75	0.73753
730	0.72684
730.25	0.71546
730.5	0.70392
730.75	0.69098
731	0.67582
731.25	0.65973
731.5	0.64489
731.75	0.63116
732	0.62094
732.25	0.61394
732.5	0.60898
732.75	0.60346
733	0.59647
733.25	0.58696
733.5	0.5763
733.75	0.56587
734	0.55619
734.25	0.54715
734.5	0.53838
734.75	0.53005
735	0.52266
735.25	0.51567
735.5	0.5094
735.75	0.5031
736	0.49714
736.25	0.49114
736.5	0.48508
736.75	0.47866
737	0.47228
737.25	0.46622
737.5	0.46
737.75	0.45499
738	0.45058
738.25	0.44584
738.5	0.44144
738.75	0.43731
739	0.43297
739.25	0.42852
739.5	0.42414
739.75	0.42044
740	0.4165
740.25	0.41261
740.5	0.40866
740.75	0.40487
741	0.40142
741.25	0.39875
741.5	0.3958
741.75	0.39341
742	0.39121
742.25	0.3889
742.5	0.38668
742.75	0.38471
743	0.38216
743.25	0.37988
743.5	0.37771
743.75	0.37599
744	0.37404
744.25	0.37274
744.5	0.37169
744.75	0.37079
745	0.36998
745.25	0.36923
745.5	0.36863
745.75	0.36786
746	0.36742
746.25	0.36702
746.5	0.36683
746.75	0.36634
747	0.36571
747.25	0.36526
747.5	0.36515
747.75	0.36515
748	0.36491
748.25	0.36456
748.5	0.36449
748.75	0.36413
749	0.36383
749.25	0.36343
749.5	0.36317
749.75	0.36321
750	0.3634
750.25	0.36365
750.5	0.36408
750.75	0.36448
751	0.36467
751.25	0.36464
751.5	0.36484
751.75	0.36483
752	0.36484
752.25	0.36463
752.5	0.36485
752.75	0.36518
753	0.36545
753.25	0.36556
753.5	0.36605
753.75	0.36585
754	0.36609
754.25	0.36589
754.5	0.36583
754.75	0.36593
755	0.36608
755.25	0.3664
755.5	0.36653
755.75	0.3673
756	0.36804
756.25	0.36876
756.5	0.3691
756.75	0.36941
757	0.36825
757.25	0.36766
757.5	0.36687
757.75	0.36634
758	0.36586
758.25	0.3654
758.5	0.364
758.75	0.36308
759	0.36273
759.25	0.36239
759.5	0.36311
759.75	0.36346
760	0.36395
760.25	0.36459
760.5	0.3652
760.75	0.36594
761	0.36678
761.25	0.36687
761.5	0.36622
761.75	0.36548
762	0.36494
762.25	0.3647
762.5	0.36503
762.75	0.36438
763	0.36427
763.25	0.36408
763.5	0.36378
763.75	0.36246
764	0.36161
764.25	0.36093
764.5	0.36088
764.75	0.36089
765	0.36044
765.25	0.3606
765.5	0.36066
765.75	0.35971
766	0.35915
766.25	0.3598
766.5	0.35932
766.75	0.35889
767	0.35883
767.25	0.35873
767.5	0.35883
767.75	0.35878
768	0.35849
768.25	0.35729
768.5	0.35629
768.75	0.35442
769	0.35381
769.25	0.35384
769.5	0.35333
769.75	0.35342
770	0.35317
770.25	0.35345
770.5	0.35323
770.75	0.35333
771	0.35289
771.25	0.35237
771.5	0.35204
771.75	0.35248
772	0.35232
772.25	0.35216
772.5	0.35187
772.75	0.35192
773	0.35094
773.25	0.35106
773.5	0.35057
773.75	0.35043
774	0.34999
774.25	0.34955
774.5	0.35009
774.75	0.35038
775	0.35062
775.25	0.35171
775.5	0.3527
775.75	0.35327
776	0.35339
776.25	0.35427
776.5	0.35498
776.75	0.35653
777	0.35772
777.25	0.35944
777.5	0.36101
777.75	0.36318
778	0.36587
778.25	0.36847
778.5	0.37145
778.75	0.37413
779	0.3773
779.25	0.38011
779.5	0.38265
779.75	0.38622
780	0.38968
780.25	0.39369
780.5	0.39725
780.75	0.4015
781	0.40559
781.25	0.40919
781.5	0.41275
781.75	0.41547
782	0.41809
782.25	0.42135
782.5	0.42484
782.75	0.42862
783	0.43235
783.25	0.43599
783.5	0.43905
783.75	0.44179
784	0.44416
784.25	0.44638
784.5	0.44745
784.75	0.44872
785	0.45002
785.25	0.45207
785.5	0.45402
785.75	0.45476
786	0.45501
786.25	0.45392
786.5	0.45295
786.75	0.45198
787	0.45051
787.25	0.45001
787.5	0.45002
787.75	0.44937
788	0.44959
788.25	0.4506
788.5	0.45027
788.75	0.45133
789	0.4524
789.25	0.45386
789.5	0.45599
789.75	0.45901
790	0.46227
790.25	0.46648
790.5	0.47123
790.75	0.47552
791	0.48084
791.25	0.48605
791.5	0.49331
791.75	0.50132
792	0.51107
792.25	0.52108
792.5	0.53052
792.75	0.53927
793	0.54656
793.25	0.5536
793.5	0.55947
793.75	0.56521
794	0.57082
794.25	0.57674
794.5	0.58296
794.75	0.58856
795	0.59342
795.25	0.59767
795.5	0.60074
795.75	0.60326
796	0.60412
796.25	0.60473
796.5	0.60615
796.75	0.60783
797	0.60883
797.25	0.60868
797.5	0.60773
797.75	0.60563
798	0.6026
798.25	0.59885
798.5	0.5946
798.75	0.59174
799	0.59102
799.25	0.58995
799.5	0.59004
799.75	0.59041
800	0.58995
800.25	0.59088
800.5	0.58991
800.75	0.59032
801	0.59168
801.25	0.59279
801.5	0.59273
801.75	0.59147
802	0.5874
802.25	0.58175
802.5	0.57617
802.75	0.57049
803	0.56531
803.25	0.56067
803.5	0.55771
803.75	0.55468
804	0.55272
804.25	0.55053
804.5	0.5465
804.75	0.54145
805	0.53566
805.25	0.52937
805.5	0.52155
805.75	0.51433
806	0.50878
806.25	0.50341
806.5	0.49973
806.75	0.49673
807	0.49353
807.25	0.4896
807.5	0.48607
807.75	0.4822
808	0.47797
808.25	0.47371
808.5	0.46957
808.75	0.46554
809	0.46235
809.25	0.45786
809.5	0.45398
809.75	0.45082
810	0.44628
810.25	0.44353
810.5	0.43847
810.75	0.4372
811	0.43327
811.25	0.42902
811.5	0.42672
811.75	0.42374
812	0.42153
812.25	0.41881
812.5	0.41695
812.75	0.41431
813	0.41184
813.25	0.40964
813.5	0.40592
813.75	0.4026
814	0.39958
814.25	0.39681
814.5	0.39356
814.75	0.38944
815	0.38582
815.25	0.38183
815.5	0.37553
815.75	0.37139
816	0.36828
816.25	0.36566
816.5	0.36388
816.75	0.3624
817	0.35999
817.25	0.35771
817.5	0.35523
817.75	0.35367
818	0.35214
818.25	0.34994
818.5	0.34691
818.75	0.34574
819	0.3439
819.25	0.34291
819.5	0.34238
819.75	0.33965
820	0.33826
820.25	0.33697
820.5	0.33607
820.75	0.33502
821	0.33475
821.25	0.33298
821.5	0.33158
821.75	0.33103
822	0.32972
822.25	0.32762
822.5	0.32594
822.75	0.32421
823	0.32135
823.25	0.31899
823.5	0.31712
823.75	0.31708
824	0.31652
824.25	0.31524
824.5	0.31489
824.75	0.31461
825	0.31351
825.25	0.3127
825.5	0.311
825.75	0.30969
826	0.31007
826.25	0.30944
826.5	0.30992
826.75	0.30903
827	0.30861
827.25	0.30839
827.5	0.30862
827.75	0.30923
828	0.3093
828.25	0.30837
828.5	0.3084
828.75	0.30846
829	0.30817
829.25	0.31
829.5	0.31106
829.75	0.31058
830	0.30938
830.25	0.31065
830.5	0.31087
830.75	0.31056
831	0.31153
831.25	0.31243
831.5	0.30917
831.75	0.31113
832	0.31025
832.25	0.30979
832.5	0.31126
832.75	0.31065
833	0.31219
833.25	0.31255
833.5	0.31143
833.75	0.31243
834	0.31264
834.25	0.31493
834.5	0.31471
834.75	0.31629
835	0.31762
835.25	0.31848
835.5	0.32043
835.75	0.32142
836	0.32212
836.25	0.32308
836.5	0.32428
836.75	0.32562
837	0.32711
837.25	0.32932
837.5	0.33009
837.75	0.33311
838	0.33293
838.25	0.33274
838.5	0.33477
838.75	0.33482
839	0.33729
839.25	0.33883
839.5	0.33966
839.75	0.34137
840	0.34268
840.25	0.3445
840.5	0.34585
840.75	0.34629
841	0.34769
841.25	0.34742
841.5	0.34928
841.75	0.35187
842	0.35026
842.25	0.35154
842.5	0.35483
842.75	0.35778
843	0.35765
843.25	0.35725
843.5	0.3595
843.75	0.36141
844	0.36065
844.25	0.36071
844.5	0.36112
844.75	0.36034
845	0.35971
845.25	0.36041
845.5	0.35975
845.75	0.35949
846	0.35915
846.25	0.35977
846.5	0.35953
846.75	0.36154
847	0.36297
847.25	0.36272
847.5	0.36221
847.75	0.3633
848	0.36256
848.25	0.3605
848.5	0.35894
848.75	0.358
849	0.35554
849.25	0.35293
849.5	0.35164
849.75	0.34992
850	0.34771
850.25	0.34529
850.5	0.34367
850.75	0.34285
851	0.34207
851.25	0.34098
851.5	0.34007
851.75	0.33957
852	0.33828
852.25	0.33681
852.5	0.33516
852.75	0.33328
853	0.33186
853.25	0.3294
853.5	0.32811
853.75	0.32681
854	0.32502
854.25	0.32415
854.5	0.32314
854.75	0.32181
855	0.32028
855.25	0.31947
855.5	0.31681
855.75	0.3142
856	0.31316
856.25	0.31183
856.5	0.31109
856.75	0.31021
857	0.30977
857.25	0.30865
857.5	0.30781
857.75	0.307
858	0.30575
858.25	0.3046
858.5	0.30413
858.75	0.30337
859	0.30256
859.25	0.3022
859.5	0.30156
859.75	0.30048
860	0.29897
860.25	0.29744
860.5	0.29618
860.75	0.29469
861	0.29415
861.25	0.29346
861.5	0.29333
861.75	0.2937
862	0.29371
862.25	0.29304
862.5	0.29209
862.75	0.29145
863	0.29171
863.25	0.2915
863.5	0.29061
863.75	0.29003
864	0.28873
864.25	0.28801
864.5	0.28733
864.75	0.28712
865	0.28673
865.25	0.28573
865.5	0.28572
865.75	0.28517
866	0.28448
866.25	0.28396
866.5	0.28359
866.75	0.28376
867	0.28385
867.25	0.28388
867.5	0.28377
867.75	0.28292
868	0.28274
868.25	0.28366
868.5	0.28352
868.75	0.28223
869	0.28233
869.25	0.28139
869.5	0.28182
869.75	0.28048
870	0.27992
870.25	0.27981
870.5	0.2785
870.75	0.27847
871	0.27819
871.25	0.27825
871.5	0.27703
871.75	0.2774
872	0.27718
872.25	0.27607
872.5	0.27641
872.75	0.2773
873	0.27751
873.25	0.27793
873.5	0.27813
873.75	0.27742
874	0.27749
874.25	0.2761
874.5	0.27542
874.75	0.27484
875	0.27415
875.25	0.27378
875.5	0.27325
875.75	0.27173
876	0.27174
876.25	0.27174
876.5	0.27212
876.75	0.27177
877	0.27239
877.25	0.2738
877.5	0.27321
877.75	0.27365
878	0.2735
878.25	0.27242
878.5	0.27219
878.75	0.27164
879	0.27187
879.25	0.27301
879.5	0.27352
879.75	0.27351
880	0.27233
880.25	0.27139
880.5	0.2699
880.75	0.2689
881	0.26866
881.25	0.26894
881.5	0.2688
881.75	0.26877
882	0.26855
882.25	0.26906
882.5	0.27017
882.75	0.27046
883	0.26975
883.25	0.26955
883.5	0.26857
883.75	0.26871
884	0.26752
884.25	0.26595
884.5	0.26519
884.75	0.26565
885	0.26645
885.25	0.26725
885.5	0.26736
885.75	0.2672
886	0.26727
886.25	0.26753
886.5	0.26783
886.75	0.26763
887	0.26706
887.25	0.26661
887.5	0.26581
887.75	0.26469
888	0.26435
888.25	0.26464
888.5	0.2647
888.75	0.26581
889	0.2666
889.25	0.268
889.5	0.26709
889.75	0.26728
890	0.26666
890.25	0.26724
890.5	0.26681
890.75	0.26192
891	0.26678
891.25	0.26203
891.5	0.2649
891.75	0.26442
892	0.26618
892.25	0.26822
892.5	0.26253
892.75	0.26064
893	0.26448
893.25	0.26569
893.5	0.26396
893.75	0.26003
894	0.26219
894.25	0.26288
894.5	0.26035
894.75	0.26096
895	0.26095
895.25	0.26102
895.5	0.26134
895.75	0.26134
896	0.261
896.25	0.26021
896.5	0.25949
896.75	0.25895
897	0.25848
897.25	0.25799
897.5	0.25914
897.75	0.25932
898	0.25861
898.25	0.2588
898.5	0.25894
898.75	0.25901
899	0.2582
899.25	0.25796
899.5	0.25845
899.75	0.25956
900	0.25901
900.25	0.25883
900.5	0.25922
900.75	0.26046
901	0.26036
901.25	0.26132
901.5	0.26004
901.75	0.26085
902	0.26168
902.25	0.26084
902.5	0.2611
902.75	0.26143
903	0.26208
903.25	0.26276
903.5	0.2623
903.75	0.26254
904	0.2637
904.25	0.26293
904.5	0.26301
904.75	0.26064
905	0.25924
905.25	0.25922
905.5	0.25906
905.75	0.25909
906	0.259
906.25	0.2596
906.5	0.2601
906.75	0.26048
907	0.26122
907.25	0.26241
907.5	0.26367
907.75	0.26438
908	0.26438
908.25	0.26415
908.5	0.26398
908.75	0.26391
909	0.26397
909.25	0.26387
909.5	0.26343
909.75	0.26283
910	0.26305
910.25	0.26212
910.5	0.26224
910.75	0.26295
911	0.26268
911.25	0.26269
911.5	0.26336
911.75	0.26435
912	0.26572
912.25	0.26603
912.5	0.26581
912.75	0.26617
913	0.26666
913.25	0.26723
913.5	0.267
913.75	0.26668
914	0.26653
914.25	0.26652
914.5	0.26603
914.75	0.26657
915	0.26621
915.25	0.26615
915.5	0.26604
915.75	0.26646
916	0.26634
916.25	0.26594
916.5	0.26641
916.75	0.26642
917	0.2667
917.25	0.26577
917.5	0.26631
917.75	0.26648
918	0.26607
918.25	0.26546
918.5	0.265
918.75	0.26418
919	0.26393
919.25	0.26425
919.5	0.26401
919.75	0.26306
920	0.26245
920.25	0.26242
920.5	0.26231
920.75	0.26275
921	0.26258
921.25	0.26191
921.5	0.26221
921.75	0.2622
922	0.26206
922.25	0.26187
922.5	0.26218
922.75	0.26236
923	0.26213
923.25	0.26223
923.5	0.26222
923.75	0.26292
924	0.26289
924.25	0.2625
924.5	0.26219
924.75	0.26191
925	0.26154
925.25	0.26179
925.5	0.26078
925.75	0.26074
926	0.25998
926.25	0.26021
926.5	0.25997
926.75	0.26031
927	0.26003
927.25	0.26003
927.5	0.25906
927.75	0.25861
928	0.25828
928.25	0.258
928.5	0.25786
928.75	0.2576
929	0.25755
929.25	0.25783
929.5	0.25782
929.75	0.25828
930	0.25867
930.25	0.2592
930.5	0.26
930.75	0.26003
931	0.26077
931.25	0.26161
931.5	0.26238
931.75	0.2635
932	0.26429
932.25	0.26522
932.5	0.26671
932.75	0.26831
933	0.26968
933.25	0.2707
933.5	0.27193
933.75	0.27323
934	0.27435
934.25	0.27569
934.5	0.27686
934.75	0.27776
935	0.27811
935.25	0.27832
935.5	0.27873
935.75	0.27915
936	0.28003
936.25	0.28108
936.5	0.28215
936.75	0.28308
937	0.28397
937.25	0.28479
937.5	0.28551
937.75	0.2859
938	0.28632
938.25	0.28692
938.5	0.28749
938.75	0.28811
939	0.28897
939.25	0.28971
939.5	0.29025
939.75	0.29082
940	0.29149
940.25	0.29238
940.5	0.29315
940.75	0.29385
941	0.29482
941.25	0.29571
941.5	0.29651
941.75	0.29725
942	0.29782
942.25	0.29762
942.5	0.29755
942.75	0.29763
943	0.29748
943.25	0.29741
943.5	0.29678
943.75	0.29636
944	0.29611
944.25	0.29638
944.5	0.29677
944.75	0.29716
945	0.29737
945.25	0.29735
945.5	0.29745
945.75	0.2976
946	0.2975
946.25	0.2972
946.5	0.29663
946.75	0.2959
947	0.29549
947.25	0.29525
947.5	0.29528
947.75	0.29554
948	0.29599
948.25	0.2961
948.5	0.29577
948.75	0.29557
949	0.29532
949.25	0.2949
949.5	0.2943
949.75	0.29427
950	0.29406
950.25	0.29403
950.5	0.29308
950.75	0.29268
951	0.29167
951.25	0.29099
951.5	0.29094
951.75	0.29078
952	0.29074
952.25	0.291
952.5	0.29102
952.75	0.29085
953	0.2906
953.25	0.29059
953.5	0.29023
953.75	0.29007
954	0.28979
954.25	0.28934
954.5	0.28912
954.75	0.28895
955	0.28913
955.25	0.28926
955.5	0.28983
955.75	0.29002
956	0.28959
956.25	0.28913
956.5	0.28971
956.75	0.28996
957	0.29006
957.25	0.29006
957.5	0.29007
957.75	0.28982
958	0.28929
958.25	0.28899
958.5	0.28891
958.75	0.28928
959	0.28947
959.25	0.28998
959.5	0.29062
959.75	0.29072
960	0.29067
960.25	0.29057
960.5	0.29079
960.75	0.29097
961	0.29099
961.25	0.29139
961.5	0.2913
961.75	0.29129
962	0.29095
962.25	0.29075
962.5	0.29017
962.75	0.2896
963	0.28905
963.25	0.28878
963.5	0.28859
963.75	0.2882
964	0.28832
964.25	0.28826
964.5	0.28824
964.75	0.28802
965	0.28788
965.25	0.28739
965.5	0.28755
965.75	0.28701
966	0.28652
966.25	0.28645
966.5	0.28672
966.75	0.28717
967	0.28812
967.25	0.289
967.5	0.28949
967.75	0.28934
968	0.28928
968.25	0.28934
968.5	0.28917
968.75	0.28866
969	0.28834
969.25	0.28776
969.5	0.28788
969.75	0.28817
970	0.28832
970.25	0.28802
970.5	0.28746
970.75	0.28694
971	0.286
971.25	0.28494
971.5	0.28382
971.75	0.28269
972	0.28194
972.25	0.28145
972.5	0.28131
972.75	0.28152
973	0.28141
973.25	0.28138
973.5	0.28102
973.75	0.28089
974	0.28072
974.25	0.28103
974.5	0.28124
974.75	0.28095
975	0.28117
975.25	0.2812
975.5	0.27976
975.75	0.27806
976	0.27777
976.25	0.27791
976.5	0.27791
976.75	0.2779
977	0.27796
977.25	0.27819
977.5	0.27833
977.75	0.27736
978	0.27714
978.25	0.27674
978.5	0.276
978.75	0.27553
979	0.27538
979.25	0.2753
979.5	0.27505
979.75	0.27514
980	0.27488
980.25	0.27482
980.5	0.27486
980.75	0.27472
981	0.27452
981.25	0.27416
981.5	0.27401
981.75	0.27376
982	0.27337
982.25	0.27325
982.5	0.27338
982.75	0.27305
983	0.27241
983.25	0.2719
983.5	0.27139
983.75	0.27102
984	0.27058
984.25	0.27008
984.5	0.27005
984.75	0.27016
985	0.27033
985.25	0.27036
985.5	0.26998
985.75	0.26958
986	0.26917
986.25	0.26875
986.5	0.26841
986.75	0.2682
987	0.26819
987.25	0.26818
987.5	0.26824
987.75	0.26801
988	0.2681
988.25	0.26784
988.5	0.26746
988.75	0.26693
989	0.26648
989.25	0.26585
989.5	0.26514
989.75	0.26443
990	0.26384
990.25	0.2634
990.5	0.26303
990.75	0.26256
991	0.26228
991.25	0.26221
991.5	0.26219
991.75	0.26235
992	0.2623
992.25	0.26233
992.5	0.26244
992.75	0.26233
993	0.26202
993.25	0.2614
993.5	0.26118
993.75	0.26112
994	0.2608
994.25	0.26048
994.5	0.26012
994.75	0.25953
995	0.25887
995.25	0.25856
995.5	0.25835
995.75	0.25799
996	0.25758
996.25	0.25726
996.5	0.25669
996.75	0.25626
997	0.25568
997.25	0.25492
997.5	0.25418
997.75	0.25359
998	0.25313
998.25	0.25301
998.5	0.25317
998.75	0.25334
999	0.25363
999.25	0.25392
999.5	0.25432
999.75	0.25463
1000	0.25489
1000.25	0.25487
1000.5	0.25468
1000.75	0.25425
1001	0.25359
1001.25	0.25309
1001.5	0.25244
1001.75	0.25201
1002	0.25161
1002.25	0.25133
1002.5	0.2509
1002.75	0.25045
1003	0.2502
1003.25	0.25023
1003.5	0.24969
1003.75	0.24924
1004	0.24875
1004.25	0.24822
1004.5	0.24761
1004.75	0.24724
1005	0.24697
1005.25	0.24668
1005.5	0.24659
1005.75	0.24638
1006	0.24629
1006.25	0.24611
1006.5	0.24597
1006.75	0.24569
1007	0.24522
1007.25	0.24492
1007.5	0.24454
1007.75	0.24406
1008	0.24383
1008.25	0.24361
1008.5	0.2437
1008.75	0.24264
1009	0.24344
1009.25	0.24285
1009.5	0.24236
1009.75	0.24182
1010	0.24237
1010.25	0.2439
1010.5	0.24471
1010.75	0.2446
1011	0.2444
1011.25	0.24379
1011.5	0.24354
1011.75	0.24272
1012	0.24191
1012.25	0.24114
1012.5	0.24107
1012.75	0.24055
1013	0.23982
1013.25	0.23908
1013.5	0.23875
1013.75	0.23876
1014	0.23877
1014.25	0.2391
1014.5	0.23934
1014.75	0.23957
1015	0.23953
1015.25	0.23956
1015.5	0.23951
1015.75	0.2392
1016	0.23906
1016.25	0.23908
1016.5	0.23907
1016.75	0.23875
1017	0.23872
1017.25	0.23906
1017.5	0.23929
1017.75	0.23926
1018	0.23881
1018.25	0.2387
1018.5	0.23877
1018.75	0.23876
1019	0.23885
1019.25	0.23886
1019.5	0.23873
1019.75	0.2387
1020	0.23856
1020.25	0.23837
1020.5	0.23845
1020.75	0.23824
1021	0.23787
1021.25	0.23754
1021.5	0.23776
1021.75	0.23787
1022	0.23734
1022.25	0.23695
1022.5	0.23699
1022.75	0.236
1023	0.23461
1023.25	0.23379
1023.5	0.23336
1023.75	0.23316
1024	0.23311
1024.25	0.23317
1024.5	0.23342
1024.75	0.23359
1025	0.2338
1025.25	0.23409
1025.5	0.2339
1025.75	0.23366
1026	0.23291
1026.25	0.23265
1026.5	0.23172
1026.75	0.23117
1027	0.23134
1027.25	0.23192
1027.5	0.23249
1027.75	0.23189
1028	0.2318
1028.25	0.231
1028.5	0.23121
1028.75	0.2314
1029	0.23195
1029.25	0.23183
1029.5	0.23181
1029.75	0.23202
1030	0.23247
1030.25	0.2332
1030.5	0.23314
1030.75	0.23301
1031	0.23314
1031.25	0.23303
1031.5	0.23314
1031.75	0.23326
1032	0.23343
1032.25	0.23343
1032.5	0.23343
1032.75	0.2333
1033	0.23343
1033.25	0.23361
1033.5	0.23348
1033.75	0.23372
1034	0.23368
1034.25	0.2338
1034.5	0.23367
1034.75	0.23322
1035	0.23283
1035.25	0.23247
1035.5	0.23227
1035.75	0.23207
1036	0.23219
1036.25	0.23181
1036.5	0.23206
1036.75	0.23183
1037	0.2314
1037.25	0.23154
1037.5	0.23108
1037.75	0.23166
1038	0.23135
1038.25	0.23017
1038.5	0.22931
1038.75	0.23094
1039	0.23097
1039.25	0.23058
1039.5	0.2297
1039.75	0.22817
1040	0.22715
1040.25	0.22675
1040.5	0.22709
1040.75	0.22731
1041	0.22693
1041.25	0.22621
1041.5	0.22774
1041.75	0.22736
1042	0.22665
1042.25	0.22744
1042.5	0.22764
1042.75	0.22785
1043	0.22831
1043.25	0.22817
1043.5	0.2279
1043.75	0.22727
1044	0.22681
1044.25	0.22626
1044.5	0.22564
1044.75	0.22495
1045	0.22511
1045.25	0.22462
1045.5	0.22435
1045.75	0.22532
1046	0.22725
1046.25	0.22469
1046.5	0.22349
1046.75	0.2247
1047	0.22435
1047.25	0.22425
1047.5	0.22349
1047.75	0.22365
1048	0.22417
1048.25	0.22365
1048.5	0.22411
1048.75	0.22488
1049	0.22517
1049.25	0.22483
1049.5	0.22386
1049.75	0.22327
1050	0.22375
1050.25	0.22246
1050.5	0.22193
1050.75	0.22212
1051	0.22244
1051.25	0.22208
1051.5	0.22293
1051.75	0.22257
1052	0.22201
1052.25	0.22169
1052.5	0.22179
1052.75	0.22314
1053	0.22268
1053.25	0.22211
1053.5	0.22302
1053.75	0.22138
1054	0.22216
1054.25	0.22067
1054.5	0.2205
1054.75	0.22074
1055	0.22114
1055.25	0.21998
1055.5	0.22023
1055.75	0.22051
1056	0.22027
1056.25	0.22032
1056.5	0.22059
1056.75	0.22039
1057	0.21953
1057.25	0.2202
1057.5	0.22014
1057.75	0.21937
1058	0.21914
1058.25	0.21951
1058.5	0.22032
1058.75	0.22019
1059	0.22103
1059.25	0.21961
1059.5	0.21951
1059.75	0.21983
1060	0.21941
1060.25	0.22061
1060.5	0.21974
1060.75	0.22002
1061	0.21947
1061.25	0.22114
1061.5	0.22088
1061.75	0.22048
1062	0.22028
1062.25	0.22033
1062.5	0.22073
1062.75	0.22122
1063	0.2214
1063.25	0.22152
1063.5	0.22136
1063.75	0.22119
1064	0.22079
1064.25	0.2202
1064.5	0.21973
1064.75	0.21935
1065	0.21907
1065.25	0.2187
1065.5	0.21862
1065.75	0.21899
1066	0.21934
1066.25	0.21974
1066.5	0.22004
1066.75	0.22055
1067	0.22091
1067.25	0.22111
1067.5	0.22139
1067.75	0.22217
1068	0.22201
1068.25	0.22144
1068.5	0.22146
1068.75	0.22148
1069	0.22183
1069.25	0.222
1069.5	0.22225
1069.75	0.22227
1070	0.22196
1070.25	0.22146
1070.5	0.221
1070.75	0.22087
1071	0.22086
1071.25	0.2209
1071.5	0.22116
1071.75	0.22135
1072	0.2216
1072.25	0.22174
1072.5	0.22167
1072.75	0.22151
1073	0.22103
1073.25	0.22035
1073.5	0.21969
1073.75	0.21923
1074	0.21928
1074.25	0.21957
1074.5	0.21989
1074.75	0.22011
1075	0.2201
1075.25	0.21985
1075.5	0.21967
1075.75	0.21972
1076	0.21999
1076.25	0.22042
1076.5	0.22078
1076.75	0.2212
1077	0.22151
1077.25	0.2215
1077.5	0.22125
1077.75	0.22077
1078	0.22033
1078.25	0.21995
1078.5	0.2194
1078.75	0.21893
1079	0.21856
1079.25	0.21835
1079.5	0.21819
1079.75	0.21817
1080	0.21797

