0	0.47418
0.25	0.46971
0.5	0.47094
0.75	0.47348
1	0.4763
1.25	0.47902
1.5	0.48212
1.75	0.48496
2	0.48676
2.25	0.48825
2.5	0.48862
2.75	0.48954
3	0.49013
3.25	0.48885
3.5	0.48955
3.75	0.48953
4	0.4896
4.25	0.48953
4.5	0.48935
4.75	0.4879
5	0.48772
5.25	0.4876
5.5	0.48745
5.75	0.48626
6	0.48587
6.25	0.48514
6.5	0.48496
6.75	0.48428
7	0.48402
7.25	0.48386
7.5	0.48368
7.75	0.48327
8	0.4835
8.25	0.48423
8.5	0.48473
8.75	0.48445
9	0.48237
9.25	0.48325
9.5	0.48412
9.75	0.48272
10	0.48422
10.25	0.48327
10.5	0.48305
10.75	0.48325
11	0.48301
11.25	0.48389
11.5	0.48409
11.75	0.48413
12	0.48443
12.25	0.48488
12.5	0.48402
12.75	0.48325
13	0.48361
13.25	0.48339
13.5	0.48405
13.75	0.48387
14	0.48452
14.25	0.48352
14.5	0.48334
14.75	0.48362
15	0.48326
15.25	0.48323
15.5	0.48235
15.75	0.48223
16	0.48182
16.25	0.48148
16.5	0.48134
16.75	0.48214
17	0.4819
17.25	0.48131
17.5	0.48188
17.75	0.48174
18	0.48098
18.25	0.48015
18.5	0.48064
18.75	0.48033
19	0.48021
19.25	0.47998
19.5	0.47925
19.75	0.47963
20	0.47967
20.25	0.47917
20.5	0.47949
20.75	0.47874
21	0.47855
21.25	0.47816
21.5	0.47919
21.75	0.47931
22	0.47873
22.25	0.47809
22.5	0.478
22.75	0.47798
23	0.47734
23.25	0.47737
23.5	0.47651
23.75	0.47678
24	0.47679
24.25	0.47625
24.5	0.47601
24.75	0.47636
25	0.47671
25.25	0.47629
25.5	0.47624
25.75	0.47539
26	0.47519
26.25	0.47514
26.5	0.47424
26.75	0.47346
27	0.47439
27.25	0.47302
27.5	0.47322
27.75	0.47319
28	0.47327
28.25	0.47322
28.5	0.47329
28.75	0.47282
29	0.4727
29.25	0.47265
29.5	0.47175
29.75	0.47106
30	0.47102
30.25	0.47153
30.5	0.47078
30.75	0.47106
31	0.47111
31.25	0.47139
31.5	0.47065
31.75	0.47092
32	0.47098
32.25	0.47082
32.5	0.47051
32.75	0.47049
33	0.46943
33.25	0.46993
33.5	0.46983
33.75	0.46963
34	0.47013
34.25	0.46911
34.5	0.46828
34.75	0.46837
35	0.46901
35.25	0.46856
35.5	0.46912
35.75	0.46934
36	0.46854
36.25	0.46797
36.5	0.46791
36.75	0.46762
37	0.4668
37.25	0.46713
37.5	0.46641
37.75	0.46572
38	0.46604
38.25	0.46621
38.5	0.46608
38.75	0.46574
39	0.46637
39.25	0.46635
39.5	0.46565
39.75	0.4659
40	0.46579
40.25	0.46573
40.5	0.46601
40.75	0.46603
41	0.46598
41.25	0.46593
41.5	0.46586
41.75	0.46606
42	0.46565
42.25	0.46501
42.5	0.46558
42.75	0.46535
43	0.46654
43.25	0.46529
43.5	0.46464
43.75	0.46464
44	0.46453
44.25	0.46432
44.5	0.46425
44.75	0.46414
45	0.46371
45.25	0.46373
45.5	0.46352
45.75	0.46275
46	0.46262
46.25	0.46217
46.5	0.46221
46.75	0.46259
47	0.46211
47.25	0.46229
47.5	0.46259
47.75	0.46188
48	0.46129
48.25	0.4612
48.5	0.46082
48.75	0.46034
49	0.45976
49.25	0.46031
49.5	0.46035
49.75	0.46091
50	0.46092
50.25	0.46104
50.5	0.46011
50.75	0.46016
51	0.46023
51.25	0.46023
51.5	0.4601
51.75	0.4605
52	0.46073
52.25	0.46063
52.5	0.46062
52.75	0.46043
53	0.46069
53.25	0.46053
53.5	0.45988
53.75	0.45971
54	0.45992
54.25	0.46024
54.5	0.4588
54.75	0.45903
55	0.45967
55.25	0.45869
55.5	0.45902
55.75	0.45832
56	0.45774
56.25	0.45776
56.5	0.45848
56.75	0.45786
57	0.45721
57.25	0.45618
57.5	0.45744
57.75	0.45769
58	0.45689
58.25	0.45669
58.5	0.45492
58.75	0.45567
59	0.45473
59.25	0.45522
59.5	0.45564
59.75	0.45564
60	0.45519
60.25	0.45419
60.5	0.45452
60.75	0.45413
61	0.4537
61.25	0.45335
61.5	0.45357
61.75	0.45329
62	0.45309
62.25	0.45194
62.5	0.45266
62.75	0.45311
63	0.4531
63.25	0.45272
63.5	0.45349
63.75	0.45411
64	0.45384
64.25	0.45257
64.5	0.4538
64.75	0.45306
65	0.45301
65.25	0.45251
65.5	0.45337
65.75	0.45304
66	0.45276
66.25	0.45376
66.5	0.45359
66.75	0.45094
67	0.45304
67.25	0.45524
67.5	0.45577
67.75	0.4568
68	0.45638
68.25	0.45628
68.5	0.45746
68.75	0.45739
69	0.45862
69.25	0.45681
69.5	0.45812
69.75	0.45882
70	0.45801
70.25	0.45833
70.5	0.45781
70.75	0.45858
71	0.45773
71.25	0.45627
71.5	0.45672
71.75	0.45708
72	0.4564
72.25	0.45611
72.5	0.45535
72.75	0.45595
73	0.45447
73.25	0.45447
73.5	0.45441
73.75	0.45388
74	0.4539
74.25	0.45397
74.5	0.45367
74.75	0.45513
75	0.45402
75.25	0.45428
75.5	0.45409
75.75	0.45361
76	0.45375
76.25	0.45367
76.5	0.45343
76.75	0.45353
77	0.45394
77.25	0.45361
77.5	0.45369
77.75	0.4553
78	0.45515
78.25	0.45481
78.5	0.45545
78.75	0.45562
79	0.45638
79.25	0.45583
79.5	0.45489
79.75	0.45305
80	0.45304
80.25	0.45333
80.5	0.45321
80.75	0.45131
81	0.44997
81.25	0.44929
81.5	0.4492
81.75	0.44905
82	0.44938
82.25	0.44838
82.5	0.44788
82.75	0.44748
83	0.44692
83.25	0.44757
83.5	0.44718
83.75	0.44787
84	0.44647
84.25	0.44544
84.5	0.44509
84.75	0.44566
85	0.44373
85.25	0.44326
85.5	0.44473
85.75	0.444
86	0.44396
86.25	0.44381
86.5	0.44401
86.75	0.44382
87	0.44212
87.25	0.44139
87.5	0.4416
87.75	0.4419
88	0.44159
88.25	0.44154
88.5	0.4425
88.75	0.4412
89	0.44177
89.25	0.44124
89.5	0.4419
89.75	0.44175
90	0.44262
90.25	0.44319
90.5	0.4435
90.75	0.44295
91	0.44293
91.25	0.44302
91.5	0.44333
91.75	0.4433
92	0.44383
92.25	0.44425
92.5	0.44498
92.75	0.44459
93	0.44518
93.25	0.44521
93.5	0.44654
93.75	0.44663
94	0.44713
94.25	0.44718
94.5	0.44686
94.75	0.448
95	0.4486
95.25	0.44825
95.5	0.4487
95.75	0.44879
96	0.44883
96.25	0.4491
96.5	0.44912
96.75	0.44955
97	0.44928
97.25	0.44908
97.5	0.4485
97.75	0.44853
98	0.44773
98.25	0.44754
98.5	0.44763
98.75	0.4478
99	0.44837
99.25	0.44903
99.5	0.44906
99.75	0.44914
100	0.44851
100.25	0.44854
100.5	0.4476
100.75	0.44722
101	0.44808
101.25	0.4478
101.5	0.44983
101.75	0.45015
102	0.44978
102.25	0.44886
102.5	0.4492
102.75	0.4486
103	0.44801
103.25	0.44847
103.5	0.44943
103.75	0.44914
104	0.44961
104.25	0.44945
104.5	0.44909
104.75	0.44905
105	0.44952
105.25	0.44966
105.5	0.44973
105.75	0.4487
106	0.4483
106.25	0.44784
106.5	0.44794
106.75	0.4482
107	0.4476
107.25	0.44897
107.5	0.44951
107.75	0.44955
108	0.44844
108.25	0.4484
108.5	0.44923
108.75	0.44895
109	0.44821
109.25	0.4475
109.5	0.44808
109.75	0.44948
110	0.44795
110.25	0.44864
110.5	0.44757
110.75	0.44666
111	0.44683
111.25	0.44752
111.5	0.44624
111.75	0.44578
112	0.44389
112.25	0.44591
112.5	0.44499
112.75	0.44597
113	0.44373
113.25	0.44408
113.5	0.44534
113.75	0.44439
114	0.44374
114.25	0.44412
114.5	0.44448
114.75	0.44534
115	0.44234
115.25	0.4431
115.5	0.44318
115.75	0.44268
116	0.44126
116.25	0.44186
116.5	0.44111
116.75	0.44044
117	0.43986
117.25	0.44065
117.5	0.44063
117.75	0.43967
118	0.43975
118.25	0.43949
118.5	0.43885
118.75	0.44075
119	0.44113
119.25	0.43958
119.5	0.4401
119.75	0.44223
120	0.44087
120.25	0.44121
120.5	0.44189
120.75	0.44124
121	0.44046
121.25	0.44064
121.5	0.44073
121.75	0.44025
122	0.44046
122.25	0.44017
122.5	0.4394
122.75	0.4402
123	0.44164
123.25	0.4411
123.5	0.44169
123.75	0.44478
124	0.44278
124.25	0.44194
124.5	0.44184
124.75	0.44224
125	0.44208
125.25	0.44155
125.5	0.44268
125.75	0.44297
126	0.44279
126.25	0.44299
126.5	0.44334
126.75	0.44264
127	0.44334
127.25	0.44234
127.5	0.44301
127.75	0.44272
128	0.44286
128.25	0.44253
128.5	0.44274
128.75	0.44379
129	0.44351
129.25	0.44286
129.5	0.44239
129.75	0.44288
130	0.44203
130.25	0.44251
130.5	0.44275
130.75	0.44188
131	0.44193
131.25	0.44244
131.5	0.44265
131.75	0.44201
132	0.44248
132.25	0.44178
132.5	0.44159
132.75	0.44114
133	0.4425
133.25	0.44171
133.5	0.44231
133.75	0.44233
134	0.44194
134.25	0.44218
134.5	0.44243
134.75	0.44183
135	0.44167
135.25	0.44214
135.5	0.44284
135.75	0.44214
136	0.44076
136.25	0.4404
136.5	0.4406
136.75	0.44002
137	0.44048
137.25	0.44042
137.5	0.44059
137.75	0.44004
138	0.44015
138.25	0.44119
138.5	0.44046
138.75	0.44065
139	0.44142
139.25	0.4414
139.5	0.44037
139.75	0.44101
140	0.44063
140.25	0.44132
140.5	0.44055
140.75	0.43974
141	0.43949
141.25	0.44027
141.5	0.44138
141.75	0.4417
142	0.44113
142.25	0.4398
142.5	0.44011
142.75	0.44025
143	0.43862
143.25	0.43929
143.5	0.43953
143.75	0.43994
144	0.44102
144.25	0.43956
144.5	0.4407
144.75	0.44112
145	0.43981
145.25	0.43924
145.5	0.43854
145.75	0.4381
146	0.43895
146.25	0.4392
146.5	0.43988
146.75	0.43933
147	0.43866
147.25	0.43911
147.5	0.43851
147.75	0.4387
148	0.43799
148.25	0.43724
148.5	0.43886
148.75	0.43866
149	0.43716
149.25	0.43778
149.5	0.43789
149.75	0.43698
150	0.43755
150.25	0.4375
150.5	0.43734
150.75	0.43624
151	0.4363
151.25	0.43612
151.5	0.43551
151.75	0.43438
152	0.43501
152.25	0.43496
152.5	0.43391
152.75	0.43425
153	0.43472
153.25	0.43364
153.5	0.43405
153.75	0.43303
154	0.43262
154.25	0.43249
154.5	0.43291
154.75	0.43251
155	0.43186
155.25	0.43295
155.5	0.4329
155.75	0.43302
156	0.43254
156.25	0.43255
156.5	0.43215
156.75	0.43141
157	0.43271
157.25	0.43202
157.5	0.43232
157.75	0.43276
158	0.43212
158.25	0.43236
158.5	0.43227
158.75	0.43298
159	0.43323
159.25	0.4327
159.5	0.43255
159.75	0.43365
160	0.43314
160.25	0.43287
160.5	0.43241
160.75	0.43258
161	0.43266
161.25	0.43306
161.5	0.43262
161.75	0.4328
162	0.43209
162.25	0.43194
162.5	0.43181
162.75	0.43139
163	0.43173
163.25	0.43197
163.5	0.43197
163.75	0.43182
164	0.431
164.25	0.43104
164.5	0.43058
164.75	0.43099
165	0.43077
165.25	0.43033
165.5	0.43163
165.75	0.43324
166	0.43182
166.25	0.43175
166.5	0.43193
166.75	0.43207
167	0.43204
167.25	0.43179
167.5	0.43132
167.75	0.43188
168	0.43074
168.25	0.43109
168.5	0.43139
168.75	0.43161
169	0.43169
169.25	0.43195
169.5	0.43151
169.75	0.43133
170	0.4315
170.25	0.43115
170.5	0.43064
170.75	0.43047
171	0.42988
171.25	0.42977
171.5	0.43023
171.75	0.43084
172	0.43073
172.25	0.43074
172.5	0.43071
172.75	0.43081
173	0.42993
173.25	0.42982
173.5	0.42957
173.75	0.42864
174	0.42803
174.25	0.42651
174.5	0.42696
174.75	0.42748
175	0.42712
175.25	0.42679
175.5	0.42664
175.75	0.42629
176	0.42641
176.25	0.42657
176.5	0.42623
176.75	0.42755
177	0.42764
177.25	0.42784
177.5	0.42778
177.75	0.42702
178	0.42636
178.25	0.42757
178.5	0.42906
178.75	0.42829
179	0.42771
179.25	0.42726
179.5	0.42698
179.75	0.42652
180	0.42639
180.25	0.42583
180.5	0.42581
180.75	0.42652
181	0.42538
181.25	0.42516
181.5	0.42491
181.75	0.42478
182	0.4241
182.25	0.42396
182.5	0.42486
182.75	0.42529
183	0.42322
183.25	0.42209
183.5	0.42139
183.75	0.42321
184	0.42391
184.25	0.42289
184.5	0.42373
184.75	0.424
185	0.4246
185.25	0.42368
185.5	0.42462
185.75	0.42333
186	0.42345
186.25	0.42405
186.5	0.4237
186.75	0.42403
187	0.42434
187.25	0.42397
187.5	0.42507
187.75	0.42517
188	0.42543
188.25	0.4249
188.5	0.4254
188.75	0.42496
189	0.42453
189.25	0.42486
189.5	0.42444
189.75	0.42487
190	0.42424
190.25	0.42389
190.5	0.42505
190.75	0.42327
191	0.42237
191.25	0.42239
191.5	0.42253
191.75	0.42148
192	0.42113
192.25	0.4213
192.5	0.42151
192.75	0.42172
193	0.42109
193.25	0.42005
193.5	0.41864
193.75	0.41974
194	0.41763
194.25	0.4201
194.5	0.4197
194.75	0.41844
195	0.41852
195.25	0.41941
195.5	0.41828
195.75	0.41882
196	0.41959
196.25	0.42032
196.5	0.42007
196.75	0.42075
197	0.42028
197.25	0.41957
197.5	0.41982
197.75	0.41949
198	0.42016
198.25	0.42009
198.5	0.42088
198.75	0.42036
199	0.41964
199.25	0.41892
199.5	0.41838
199.75	0.4179
200	0.41835
200.25	0.41917
200.5	0.41935
200.75	0.41947
201	0.42022
201.25	0.41971
201.5	0.4191
201.75	0.41893
202	0.41921
202.25	0.41894
202.5	0.41878
202.75	0.41905
203	0.41932
203.25	0.42007
203.5	0.42027
203.75	0.41938
204	0.41941
204.25	0.41806
204.5	0.41785
204.75	0.41812
205	0.41804
205.25	0.41665
205.5	0.41728
205.75	0.41793
206	0.41786
206.25	0.4178
206.5	0.41772
206.75	0.41757
207	0.41756
207.25	0.41658
207.5	0.41656
207.75	0.41692
208	0.41656
208.25	0.41678
208.5	0.41741
208.75	0.41708
209	0.4168
209.25	0.4168
209.5	0.41719
209.75	0.41707
210	0.41764
210.25	0.41719
210.5	0.41643
210.75	0.41666
211	0.41753
211.25	0.41747
211.5	0.41757
211.75	0.4176
212	0.41731
212.25	0.41758
212.5	0.41722
212.75	0.41756
213	0.41758
213.25	0.41733
213.5	0.4173
213.75	0.41683
214	0.41638
214.25	0.41603
214.5	0.41588
214.75	0.41594
215	0.417
215.25	0.41673
215.5	0.41697
215.75	0.41657
216	0.41734
216.25	0.41783
216.5	0.4187
216.75	0.4177
217	0.41785
217.25	0.4179
217.5	0.41827
217.75	0.41751
218	0.41687
218.25	0.41707
218.5	0.41712
218.75	0.41582
219	0.41507
219.25	0.41545
219.5	0.4154
219.75	0.41477
220	0.41435
220.25	0.41457
220.5	0.41484
220.75	0.41457
221	0.4145
221.25	0.41391
221.5	0.41459
221.75	0.4144
222	0.41431
222.25	0.41411
222.5	0.41423
222.75	0.41396
223	0.41281
223.25	0.41204
223.5	0.41306
223.75	0.41311
224	0.41303
224.25	0.41252
224.5	0.41206
224.75	0.41231
225	0.4123
225.25	0.41235
225.5	0.41299
225.75	0.41281
226	0.41314
226.25	0.41322
226.5	0.41355
226.75	0.41373
227	0.41288
227.25	0.41384
227.5	0.41527
227.75	0.41344
228	0.4136
228.25	0.41358
228.5	0.41301
228.75	0.41287
229	0.41283
229.25	0.41233
229.5	0.41248
229.75	0.41219
230	0.41211
230.25	0.41303
230.5	0.41255
230.75	0.41188
231	0.41149
231.25	0.41297
231.5	0.41255
231.75	0.41261
232	0.41216
232.25	0.41242
232.5	0.41196
232.75	0.41211
233	0.41354
233.25	0.4132
233.5	0.41312
233.75	0.41238
234	0.41258
234.25	0.41211
234.5	0.41173
234.75	0.41188
235	0.41197
235.25	0.4118
235.5	0.41108
235.75	0.41123
236	0.41102
236.25	0.41164
236.5	0.41189
236.75	0.4124
237	0.41245
237.25	0.4126
237.5	0.41326
237.75	0.41357
238	0.41381
238.25	0.41309
238.5	0.41351
238.75	0.4133
239	0.41368
239.25	0.41354
239.5	0.41408
239.75	0.41371
240	0.41329
240.25	0.41306
240.5	0.41295
240.75	0.41272
241	0.41165
241.25	0.4128
241.5	0.41288
241.75	0.41359
242	0.4142
242.25	0.41433
242.5	0.41427
242.75	0.41368
243	0.41422
243.25	0.41361
243.5	0.41423
243.75	0.41534
244	0.41592
244.25	0.41535
244.5	0.41476
244.75	0.4149
245	0.41535
245.25	0.41508
245.5	0.41495
245.75	0.41477
246	0.41435
246.25	0.41489
246.5	0.41435
246.75	0.41471
247	0.41419
247.25	0.4145
247.5	0.41453
247.75	0.4158
248	0.41497
248.25	0.41635
248.5	0.41665
248.75	0.41658
249	0.41651
249.25	0.41625
249.5	0.41665
249.75	0.41667
250	0.41584
250.25	0.41593
250.5	0.4153
250.75	0.41608
251	0.41587
251.25	0.41633
251.5	0.41564
251.75	0.41642
252	0.41469
252.25	0.41482
252.5	0.41544
252.75	0.41486
253	0.41586
253.25	0.41549
253.5	0.41536
253.75	0.41573
254	0.41592
254.25	0.41592
254.5	0.41498
254.75	0.41508
255	0.41556
255.25	0.41531
255.5	0.41516
255.75	0.41469
256	0.41537
256.25	0.41594
256.5	0.41608
256.75	0.4162
257	0.41645
257.25	0.41541
257.5	0.41574
257.75	0.41593
258	0.41629
258.25	0.41653
258.5	0.41672
258.75	0.41656
259	0.4172
259.25	0.41722
259.5	0.41639
259.75	0.41625
260	0.41608
260.25	0.41573
260.5	0.41515
260.75	0.41482
261	0.41474
261.25	0.41516
261.5	0.41418
261.75	0.41465
262	0.41512
262.25	0.41473
262.5	0.41493
262.75	0.41364
263	0.41447
263.25	0.41394
263.5	0.41462
263.75	0.4156
264	0.41567
264.25	0.41512
264.5	0.41487
264.75	0.41512
265	0.41586
265.25	0.41572
265.5	0.41649
265.75	0.4169
266	0.41681
266.25	0.4173
266.5	0.4173
266.75	0.41735
267	0.41757
267.25	0.41727
267.5	0.41674
267.75	0.41697
268	0.4164
268.25	0.41684
268.5	0.41749
268.75	0.41633
269	0.41654
269.25	0.41682
269.5	0.41724
269.75	0.41714
270	0.41762
270.25	0.41686
270.5	0.41742
270.75	0.41862
271	0.41869
271.25	0.41825
271.5	0.41814
271.75	0.41876
272	0.41927
272.25	0.41896
272.5	0.41859
272.75	0.41872
273	0.41995
273.25	0.41932
273.5	0.41897
273.75	0.4198
274	0.41913
274.25	0.41753
274.5	0.41984
274.75	0.42009
275	0.42007
275.25	0.42053
275.5	0.42015
275.75	0.42011
276	0.42099
276.25	0.41988
276.5	0.42038
276.75	0.42035
277	0.42133
277.25	0.42146
277.5	0.42152
277.75	0.42188
278	0.42142
278.25	0.42099
278.5	0.42027
278.75	0.42071
279	0.41978
279.25	0.41857
279.5	0.41802
279.75	0.41848
280	0.41892
280.25	0.41906
280.5	0.42149
280.75	0.42219
281	0.42186
281.25	0.42224
281.5	0.42239
281.75	0.42201
282	0.42195
282.25	0.4214
282.5	0.42141
282.75	0.42188
283	0.42197
283.25	0.42079
283.5	0.42173
283.75	0.42188
284	0.42264
284.25	0.42189
284.5	0.42201
284.75	0.42137
285	0.42211
285.25	0.42239
285.5	0.42322
285.75	0.4227
286	0.42305
286.25	0.42318
286.5	0.4235
286.75	0.42402
287	0.42478
287.25	0.42513
287.5	0.42535
287.75	0.42486
288	0.4247
288.25	0.42439
288.5	0.42451
288.75	0.42433
289	0.42472
289.25	0.42582
289.5	0.42593
289.75	0.42647
290	0.42649
290.25	0.42647
290.5	0.42613
290.75	0.42667
291	0.42679
291.25	0.427
291.5	0.42629
291.75	0.42666
292	0.42682
292.25	0.42715
292.5	0.42696
292.75	0.42741
293	0.42704
293.25	0.42695
293.5	0.42761
293.75	0.42796
294	0.42759
294.25	0.42778
294.5	0.42783
294.75	0.42785
295	0.42834
295.25	0.42881
295.5	0.42836
295.75	0.42867
296	0.42836
296.25	0.42892
296.5	0.42965
296.75	0.42916
297	0.42944
297.25	0.42908
297.5	0.42985
297.75	0.42994
298	0.42981
298.25	0.42896
298.5	0.42927
298.75	0.43003
299	0.4294
299.25	0.42885
299.5	0.42887
299.75	0.4286
300	0.42881
300.25	0.42862
300.5	0.4269
300.75	0.42922
301	0.43045
301.25	0.43174
301.5	0.43313
301.75	0.43412
302	0.43521
302.25	0.43558
302.5	0.4354
302.75	0.43495
303	0.43451
303.25	0.43375
303.5	0.4346
303.75	0.43489
304	0.43443
304.25	0.43467
304.5	0.43478
304.75	0.43482
305	0.43146
305.25	0.4292
305.5	0.43319
305.75	0.4354
306	0.43699
306.25	0.43873
306.5	0.43908
306.75	0.44045
307	0.44058
307.25	0.44123
307.5	0.442
307.75	0.44297
308	0.44281
308.25	0.44278
308.5	0.4462
308.75	0.45185
309	0.45719
309.25	0.46272
309.5	0.46676
309.75	0.46859
310	0.46868
310.25	0.4668
310.5	0.45916
310.75	0.45194
311	0.4513
311.25	0.44988
311.5	0.4485
311.75	0.44709
312	0.44819
312.25	0.44827
312.5	0.44616
312.75	0.44622
313	0.44506
313.25	0.44398
313.5	0.44473
313.75	0.44539
314	0.446
314.25	0.44677
314.5	0.44586
314.75	0.44456
315	0.44461
315.25	0.44281
315.5	0.44497
315.75	0.45365
316	0.47643
316.25	0.51261
316.5	0.53261
316.75	0.52454
317	0.50209
317.25	0.48274
317.5	0.4737
317.75	0.47056
318	0.47038
318.25	0.4637
318.5	0.45692
318.75	0.44891
319	0.4453
319.25	0.44245
319.5	0.44095
319.75	0.43989
320	0.43991
320.25	0.43942
320.5	0.43905
320.75	0.44145
321	0.4407
321.25	0.44184
321.5	0.44286
321.75	0.44411
322	0.44438
322.25	0.44348
322.5	0.44297
322.75	0.44271
323	0.4439
323.25	0.44354
323.5	0.44411
323.75	0.44549
324	0.44809
324.25	0.45305
324.5	0.46006
324.75	0.46599
325	0.47072
325.25	0.48004
325.5	0.50109
325.75	0.52741
326	0.5398
326.25	0.53036
326.5	0.50817
326.75	0.48765
327	0.47375
327.25	0.46497
327.5	0.46004
327.75	0.45674
328	0.45397
328.25	0.4516
328.5	0.44964
328.75	0.44844
329	0.44795
329.25	0.44835
329.5	0.45184
329.75	0.45722
330	0.46367
330.25	0.46984
330.5	0.47192
330.75	0.46986
331	0.46741
331.25	0.46199
331.5	0.45676
331.75	0.45198
332	0.44792
332.25	0.44496
332.5	0.44328
332.75	0.44144
333	0.44051
333.25	0.44021
333.5	0.4417
333.75	0.44225
334	0.44111
334.25	0.44127
334.5	0.44199
334.75	0.44194
335	0.44289
335.25	0.44371
335.5	0.44377
335.75	0.44376
336	0.44418
336.25	0.44456
336.5	0.44495
336.75	0.44615
337	0.44733
337.25	0.44959
337.5	0.45235
337.75	0.45297
338	0.45194
338.25	0.45045
338.5	0.44759
338.75	0.44516
339	0.44436
339.25	0.44391
339.5	0.44489
339.75	0.44354
340	0.44318
340.25	0.44251
340.5	0.44055
340.75	0.44039
341	0.44167
341.25	0.44231
341.5	0.44444
341.75	0.4471
342	0.45213
342.25	0.45882
342.5	0.4642
342.75	0.46706
343	0.46794
343.25	0.46509
343.5	0.46088
343.75	0.45656
344	0.45311
344.25	0.45136
344.5	0.44996
344.75	0.44947
345	0.44923
345.25	0.44929
345.5	0.44946
345.75	0.44994
346	0.45014
346.25	0.45011
346.5	0.45058
346.75	0.45081
347	0.45103
347.25	0.45084
347.5	0.45152
347.75	0.45269
348	0.45279
348.25	0.45332
348.5	0.45482
348.75	0.45527
349	0.45413
349.25	0.45404
349.5	0.45452
349.75	0.45436
350	0.45479
350.25	0.4554
350.5	0.45556
350.75	0.45665
351	0.45712
351.25	0.45721
351.5	0.45726
351.75	0.45783
352	0.45904
352.25	0.45967
352.5	0.45989
352.75	0.45973
353	0.46156
353.25	0.46627
353.5	0.47542
353.75	0.49037
354	0.51187
354.25	0.53628
354.5	0.56102
354.75	0.57885
355	0.5862
355.25	0.58131
355.5	0.56899
355.75	0.55198
356	0.53503
356.25	0.52003
356.5	0.50733
356.75	0.49775
357	0.4898
357.25	0.48185
357.5	0.47461
357.75	0.46896
358	0.46449
358.25	0.46248
358.5	0.4623
358.75	0.46606
359	0.47644
359.25	0.49622
359.5	0.5295
359.75	0.58002
360	0.64403
360.25	0.71413
360.5	0.77519
360.75	0.81352
361	0.81837
361.25	0.79034
361.5	0.73973
361.75	0.68171
362	0.62595
362.25	0.57995
362.5	0.54592
362.75	0.52091
363	0.50426
363.25	0.49352
363.5	0.48674
363.75	0.48127
364	0.47737
364.25	0.47369
364.5	0.4706
364.75	0.4682
365	0.46619
365.25	0.46422
365.5	0.46316
365.75	0.46172
366	0.46091
366.25	0.46004
366.5	0.45996
366.75	0.4593
367	0.45869
367.25	0.45865
367.5	0.4577
367.75	0.45787
368	0.45824
368.25	0.45762
368.5	0.45802
368.75	0.45741
369	0.45837
369.25	0.4586
369.5	0.45726
369.75	0.45609
370	0.45698
370.25	0.45692
370.5	0.45743
370.75	0.45758
371	0.45757
371.25	0.45763
371.5	0.45815
371.75	0.45829
372	0.45796
372.25	0.45778
372.5	0.45869
372.75	0.45841
373	0.45846
373.25	0.45934
373.5	0.4592
373.75	0.45968
374	0.46024
374.25	0.46063
374.5	0.46078
374.75	0.46112
375	0.46113
375.25	0.46116
375.5	0.46024
375.75	0.46045
376	0.46149
376.25	0.46248
376.5	0.46401
376.75	0.46683
377	0.47065
377.25	0.47659
377.5	0.48502
377.75	0.49761
378	0.51319
378.25	0.53059
378.5	0.54826
378.75	0.56435
379	0.576
379.25	0.58014
379.5	0.57791
379.75	0.56936
380	0.55631
380.25	0.54033
380.5	0.52442
380.75	0.51012
381	0.4977
381.25	0.48712
381.5	0.47975
381.75	0.47418
382	0.47075
382.25	0.46782
382.5	0.46577
382.75	0.46455
383	0.46351
383.25	0.46293
383.5	0.46262
383.75	0.46211
384	0.46137
384.25	0.46139
384.5	0.46124
384.75	0.46082
385	0.46109
385.25	0.46072
385.5	0.46095
385.75	0.46041
386	0.46054
386.25	0.46039
386.5	0.46009
386.75	0.4604
387	0.46078
387.25	0.46167
387.5	0.46277
387.75	0.46222
388	0.46313
388.25	0.46447
388.5	0.46527
388.75	0.4649
389	0.46427
389.25	0.46421
389.5	0.46626
389.75	0.46568
390	0.46494
390.25	0.46394
390.5	0.46373
390.75	0.46288
391	0.46228
391.25	0.46189
391.5	0.46151
391.75	0.46093
392	0.461
392.25	0.46125
392.5	0.461
392.75	0.46159
393	0.46261
393.25	0.46311
393.5	0.46294
393.75	0.464
394	0.46469
394.25	0.46522
394.5	0.4657
394.75	0.46488
395	0.46524
395.25	0.46524
395.5	0.46476
395.75	0.46433
396	0.46577
396.25	0.46656
396.5	0.46736
396.75	0.46841
397	0.4688
397.25	0.46876
397.5	0.46859
397.75	0.46838
398	0.46823
398.25	0.468
398.5	0.46711
398.75	0.46643
399	0.46559
399.25	0.46574
399.5	0.46563
399.75	0.46514
400	0.46432
400.25	0.46355
400.5	0.46352
400.75	0.46281
401	0.46314
401.25	0.46299
401.5	0.4631
401.75	0.46264
402	0.46251
402.25	0.4624
402.5	0.46246
402.75	0.46247
403	0.46257
403.25	0.46282
403.5	0.4637
403.75	0.4642
404	0.46165
404.25	0.46197
404.5	0.46273
404.75	0.46405
405	0.46706
405.25	0.4698
405.5	0.46921
405.75	0.46937
406	0.4691
406.25	0.46882
406.5	0.46891
406.75	0.46916
407	0.469
407.25	0.46911
407.5	0.46934
407.75	0.47039
408	0.47113
408.25	0.47172
408.5	0.47381
408.75	0.47525
409	0.47559
409.25	0.47582
409.5	0.47588
409.75	0.47475
410	0.47561
410.25	0.47531
410.5	0.47484
410.75	0.4742
411	0.47334
411.25	0.47299
411.5	0.47186
411.75	0.47111
412	0.47019
412.25	0.47011
412.5	0.46999
412.75	0.46977
413	0.46957
413.25	0.47054
413.5	0.47072
413.75	0.47144
414	0.47142
414.25	0.47068
414.5	0.47032
414.75	0.46989
415	0.47011
415.25	0.47016
415.5	0.46908
415.75	0.4688
416	0.46814
416.25	0.46748
416.5	0.46635
416.75	0.4656
417	0.46519
417.25	0.46489
417.5	0.46494
417.75	0.46498
418	0.46441
418.25	0.46439
418.5	0.46447
418.75	0.46429
419	0.46408
419.25	0.46443
419.5	0.46487
419.75	0.46496
420	0.46528
420.25	0.46532
420.5	0.46666
420.75	0.46727
421	0.46822
421.25	0.46846
421.5	0.46912
421.75	0.46936
422	0.47051
422.25	0.47225
422.5	0.47257
422.75	0.4727
423	0.47178
423.25	0.47135
423.5	0.47063
423.75	0.47029
424	0.46988
424.25	0.47003
424.5	0.46997
424.75	0.47003
425	0.4703
425.25	0.47084
425.5	0.47099
425.75	0.47087
426	0.47112
426.25	0.47189
426.5	0.47266
426.75	0.47297
427	0.47366
427.25	0.47354
427.5	0.47291
427.75	0.47273
428	0.47203
428.25	0.47334
428.5	0.47305
428.75	0.47175
429	0.47063
429.25	0.46973
429.5	0.4681
429.75	0.4675
430	0.46748
430.25	0.46647
430.5	0.46593
430.75	0.4652
431	0.46398
431.25	0.46399
431.5	0.46556
431.75	0.46326
432	0.46236
432.25	0.4617
432.5	0.46189
432.75	0.46218
433	0.4622
433.25	0.4625
433.5	0.46177
433.75	0.46169
434	0.46101
434.25	0.46014
434.5	0.46036
434.75	0.46048
435	0.46067
435.25	0.46025
435.5	0.45993
435.75	0.46046
436	0.46061
436.25	0.46062
436.5	0.46314
436.75	0.46351
437	0.46353
437.25	0.46406
437.5	0.46337
437.75	0.46304
438	0.46318
438.25	0.46277
438.5	0.46281
438.75	0.46288
439	0.46279
439.25	0.46278
439.5	0.46281
439.75	0.46256
440	0.46304
440.25	0.46183
440.5	0.4618
440.75	0.46184
441	0.46186
441.25	0.46144
441.5	0.46128
441.75	0.46202
442	0.46232
442.25	0.46246
442.5	0.46194
442.75	0.46249
443	0.46291
443.25	0.46292
443.5	0.46333
443.75	0.46261
444	0.46174
444.25	0.46107
444.5	0.46112
444.75	0.46112
445	0.46089
445.25	0.4611
445.5	0.46163
445.75	0.46156
446	0.46195
446.25	0.46236
446.5	0.46237
446.75	0.46204
447	0.46281
447.25	0.46357
447.5	0.46466
447.75	0.46518
448	0.46511
448.25	0.46537
448.5	0.46585
448.75	0.46761
449	0.46877
449.25	0.46948
449.5	0.47041
449.75	0.47049
450	0.47139
450.25	0.47166
450.5	0.47221
450.75	0.47184
451	0.47119
451.25	0.47109
451.5	0.47049
451.75	0.47041
452	0.47019
452.25	0.47042
452.5	0.47093
452.75	0.47186
453	0.47368
453.25	0.47614
453.5	0.48001
453.75	0.48546
454	0.4934
454.25	0.50341
454.5	0.51786
454.75	0.53649
455	0.56002
455.25	0.58902
455.5	0.62319
455.75	0.66321
456	0.71095
456.25	0.76182
456.5	0.81737
456.75	0.87404
457	0.92977
457.25	0.97911
457.5	1.02597
457.75	1.0616
458	1.08449
458.25	1.09002
458.5	1.08147
458.75	1.05597
459	1.01767
459.25	0.97013
459.5	0.91599
459.75	0.85736
460	0.79707
460.25	0.74264
460.5	0.69323
460.75	0.64831
461	0.61001
461.25	0.57794
461.5	0.55149
461.75	0.52975
462	0.51333
462.25	0.50064
462.5	0.49128
462.75	0.48343
463	0.47907
463.25	0.4751
463.5	0.47186
463.75	0.47009
464	0.46881
464.25	0.46802
464.5	0.46614
464.75	0.46649
465	0.46611
465.25	0.46512
465.5	0.46534
465.75	0.466
466	0.46559
466.25	0.46478
466.5	0.46475
466.75	0.46431
467	0.46394
467.25	0.46389
467.5	0.46386
467.75	0.46343
468	0.46365
468.25	0.46355
468.5	0.46315
468.75	0.46292
469	0.46387
469.25	0.4641
469.5	0.46383
469.75	0.46458
470	0.46432
470.25	0.46477
470.5	0.46498
470.75	0.46516
471	0.46599
471.25	0.46668
471.5	0.46682
471.75	0.46694
472	0.46645
472.25	0.46576
472.5	0.46564
472.75	0.4654
473	0.46463
473.25	0.46589
473.5	0.4658
473.75	0.46578
474	0.46524
474.25	0.46471
474.5	0.46524
474.75	0.46466
475	0.46424
475.25	0.46535
475.5	0.46499
475.75	0.46523
476	0.46557
476.25	0.4645
476.5	0.46394
476.75	0.46293
477	0.46192
477.25	0.46262
477.5	0.46408
477.75	0.46458
478	0.46517
478.25	0.46519
478.5	0.46547
478.75	0.46541
479	0.46515
479.25	0.46461
479.5	0.46526
479.75	0.46534
480	0.46495
480.25	0.46536
480.5	0.46461
480.75	0.46475
481	0.46478
481.25	0.46421
481.5	0.46435
481.75	0.46477
482	0.46613
482.25	0.46705
482.5	0.46957
482.75	0.47225
483	0.47585
483.25	0.47749
483.5	0.47897
483.75	0.48044
484	0.48279
484.25	0.48562
484.5	0.48859
484.75	0.49165
485	0.49412
485.25	0.4962
485.5	0.49781
485.75	0.49956
486	0.50068
486.25	0.50178
486.5	0.50143
486.75	0.50149
487	0.50125
487.25	0.50057
487.5	0.49702
487.75	0.49419
488	0.49212
488.25	0.48864
488.5	0.48681
488.75	0.48469
489	0.48294
489.25	0.48037
489.5	0.47744
489.75	0.47495
490	0.47303
490.25	0.47175
490.5	0.47156
490.75	0.47053
491	0.46966
491.25	0.46899
491.5	0.46768
491.75	0.46693
492	0.46657
492.25	0.46732
492.5	0.46787
492.75	0.46747
493	0.46763
493.25	0.46737
493.5	0.46834
493.75	0.4686
494	0.46829
494.25	0.46768
494.5	0.46826
494.75	0.46832
495	0.46851
495.25	0.46941
495.5	0.4695
495.75	0.46969
496	0.46986
496.25	0.47038
496.5	0.47138
496.75	0.4712
497	0.47178
497.25	0.4718
497.5	0.47197
497.75	0.47185
498	0.47269
498.25	0.47322
498.5	0.47435
498.75	0.47531
499	0.47586
499.25	0.47624
499.5	0.47598
499.75	0.47663
500	0.47693
500.25	0.4775
500.5	0.47752
500.75	0.47752
501	0.47802
501.25	0.47812
501.5	0.4783
501.75	0.47898
502	0.47919
502.25	0.4799
502.5	0.48019
502.75	0.48113
503	0.48229
503.25	0.48295
503.5	0.48403
503.75	0.48424
504	0.48476
504.25	0.48622
504.5	0.48659
504.75	0.48751
505	0.48792
505.25	0.48806
505.5	0.48833
505.75	0.48905
506	0.48882
506.25	0.48797
506.5	0.48726
506.75	0.48687
507	0.4863
507.25	0.48573
507.5	0.48464
507.75	0.4839
508	0.48259
508.25	0.48167
508.5	0.48118
508.75	0.48023
509	0.47932
509.25	0.47885
509.5	0.47803
509.75	0.47711
510	0.47723
510.25	0.47702
510.5	0.47643
510.75	0.47688
511	0.4764
511.25	0.4762
511.5	0.4759
511.75	0.47582
512	0.47606
512.25	0.47612
512.5	0.47647
512.75	0.47605
513	0.47623
513.25	0.47644
513.5	0.47665
513.75	0.47693
514	0.47686
514.25	0.47618
514.5	0.47584
514.75	0.47643
515	0.47632
515.25	0.47611
515.5	0.47604
515.75	0.47566
516	0.47502
516.25	0.47457
516.5	0.47462
516.75	0.47432
517	0.47342
517.25	0.47299
517.5	0.47303
517.75	0.47349
518	0.47359
518.25	0.47378
518.5	0.47393
518.75	0.47413
519	0.47409
519.25	0.47406
519.5	0.47408
519.75	0.47409
520	0.47434
520.25	0.47469
520.5	0.47455
520.75	0.47523
521	0.47579
521.25	0.47663
521.5	0.4774
521.75	0.47816
522	0.47897
522.25	0.48044
522.5	0.48206
522.75	0.48402
523	0.48585
523.25	0.48679
523.5	0.48802
523.75	0.49015
524	0.49196
524.25	0.4943
524.5	0.49651
524.75	0.49869
525	0.50117
525.25	0.50449
525.5	0.50678
525.75	0.50946
526	0.51237
526.25	0.51467
526.5	0.51785
526.75	0.5195
527	0.52168
527.25	0.52308
527.5	0.52471
527.75	0.52614
528	0.52707
528.25	0.5273
528.5	0.52745
528.75	0.5283
529	0.52862
529.25	0.52875
529.5	0.52859
529.75	0.52734
530	0.52645
530.25	0.52546
530.5	0.52457
530.75	0.52313
531	0.52179
531.25	0.52001
531.5	0.51755
531.75	0.51529
532	0.51407
532.25	0.51137
532.5	0.5098
532.75	0.50793
533	0.50615
533.25	0.50434
533.5	0.50236
533.75	0.50106
534	0.49947
534.25	0.49689
534.5	0.49541
534.75	0.494
535	0.49203
535.25	0.49097
535.5	0.48991
535.75	0.48917
536	0.48898
536.25	0.48825
536.5	0.48827
536.75	0.48846
537	0.48885
537.25	0.48974
537.5	0.49036
537.75	0.49134
538	0.49244
538.25	0.4933
538.5	0.49363
538.75	0.49531
539	0.49622
539.25	0.49711
539.5	0.49801
539.75	0.49787
540	0.49797
540.25	0.49809
540.5	0.49843
540.75	0.49824
541	0.49805
541.25	0.49783
541.5	0.4977
541.75	0.4972
542	0.49697
542.25	0.49628
542.5	0.49613
542.75	0.49608
543	0.49609
543.25	0.49598
543.5	0.49605
543.75	0.49585
544	0.4956
544.25	0.49651
544.5	0.49686
544.75	0.49776
545	0.49761
545.25	0.49764
545.5	0.49818
545.75	0.49814
546	0.49825
546.25	0.4983
546.5	0.49741
546.75	0.49765
547	0.49744
547.25	0.49747
547.5	0.49773
547.75	0.49773
548	0.4977
548.25	0.49822
548.5	0.4986
548.75	0.49893
549	0.4994
549.25	0.49919
549.5	0.5002
549.75	0.50066
550	0.5004
550.25	0.50053
550.5	0.49913
550.75	0.49778
551	0.49795
551.25	0.49747
551.5	0.49744
551.75	0.49814
552	0.49807
552.25	0.49852
552.5	0.49882
552.75	0.49938
553	0.50002
553.25	0.50111
553.5	0.50175
553.75	0.50309
554	0.50387
554.25	0.50506
554.5	0.50571
554.75	0.50597
555	0.50583
555.25	0.50544
555.5	0.50471
555.75	0.50421
556	0.5032
556.25	0.50276
556.5	0.50146
556.75	0.5008
557	0.49971
557.25	0.49927
557.5	0.4987
557.75	0.49819
558	0.4979
558.25	0.4982
558.5	0.49802
558.75	0.49829
559	0.49864
559.25	0.50009
559.5	0.50203
559.75	0.50437
560	0.50753
560.25	0.50823
560.5	0.50842
560.75	0.50924
561	0.50961
561.25	0.51013
561.5	0.51014
561.75	0.51269
562	0.51318
562.25	0.51193
562.5	0.50974
562.75	0.50918
563	0.50939
563.25	0.50878
563.5	0.50725
563.75	0.50534
564	0.50354
564.25	0.50123
564.5	0.49932
564.75	0.4986
565	0.49725
565.25	0.49612
565.5	0.49488
565.75	0.49349
566	0.49267
566.25	0.49228
566.5	0.49123
566.75	0.49118
567	0.49118
567.25	0.49009
567.5	0.48993
567.75	0.48936
568	0.4907
568.25	0.49134
568.5	0.49273
568.75	0.49352
569	0.49394
569.25	0.49357
569.5	0.49463
569.75	0.49461
570	0.49483
570.25	0.49483
570.5	0.49567
570.75	0.4962
571	0.49673
571.25	0.49713
571.5	0.49709
571.75	0.49712
572	0.49684
572.25	0.49684
572.5	0.49613
572.75	0.49693
573	0.49774
573.25	0.49912
573.5	0.50076
573.75	0.50198
574	0.50334
574.25	0.5051
574.5	0.50632
574.75	0.50734
575	0.50741
575.25	0.5072
575.5	0.50747
575.75	0.5036
576	0.50569
576.25	0.50501
576.5	0.50122
576.75	0.50058
577	0.50749
577.25	0.51008
577.5	0.51243
577.75	0.51628
578	0.51939
578.25	0.52325
578.5	0.52815
578.75	0.53322
579	0.5385
579.25	0.54507
579.5	0.55105
579.75	0.55673
580	0.56144
580.25	0.56523
580.5	0.56761
580.75	0.56844
581	0.56765
581.25	0.56579
581.5	0.56236
581.75	0.55601
582	0.54743
582.25	0.53934
582.5	0.53111
582.75	0.52398
583	0.51647
583.25	0.51076
583.5	0.50558
583.75	0.50043
584	0.49651
584.25	0.49457
584.5	0.49209
584.75	0.49082
585	0.4892
585.25	0.48789
585.5	0.48599
585.75	0.48411
586	0.4834
586.25	0.48241
586.5	0.48246
586.75	0.48203
587	0.48119
587.25	0.48245
587.5	0.48253
587.75	0.48223
588	0.48377
588.25	0.48421
588.5	0.48559
588.75	0.48737
589	0.49013
589.25	0.49363
589.5	0.49909
589.75	0.50457
590	0.51174
590.25	0.51961
590.5	0.52775
590.75	0.53715
591	0.54517
591.25	0.55302
591.5	0.55975
591.75	0.56518
592	0.56782
592.25	0.56687
592.5	0.56354
592.75	0.5575
593	0.54871
593.25	0.54019
593.5	0.5305
593.75	0.52116
594	0.51239
594.25	0.50446
594.5	0.49897
594.75	0.49306
595	0.48849
595.25	0.48397
595.5	0.48166
595.75	0.47947
596	0.47854
596.25	0.47688
596.5	0.47597
596.75	0.47582
597	0.476
597.25	0.47631
597.5	0.47635
597.75	0.47702
598	0.47728
598.25	0.47768
598.5	0.47791
598.75	0.47824
599	0.47753
599.25	0.47688
599.5	0.47623
599.75	0.47588
600	0.47634
600.25	0.4762
600.5	0.47747
600.75	0.47839
601	0.47946
601.25	0.48111
601.5	0.48441
601.75	0.48566
602	0.48968
602.25	0.49419
602.5	0.50057
602.75	0.50911
603	0.51927
603.25	0.53037
603.5	0.54392
603.75	0.55944
604	0.57572
604.25	0.59217
604.5	0.61061
604.75	0.6293
605	0.64569
605.25	0.66046
605.5	0.67263
605.75	0.68069
606	0.684
606.25	0.68281
606.5	0.67604
606.75	0.6666
607	0.65259
607.25	0.63648
607.5	0.61679
607.75	0.59646
608	0.57702
608.25	0.55924
608.5	0.54452
608.75	0.53072
609	0.51957
609.25	0.50964
609.5	0.5022
609.75	0.49566
610	0.49048
610.25	0.48687
610.5	0.48501
610.75	0.48295
611	0.48237
611.25	0.4813
611.5	0.481
611.75	0.48042
612	0.47627
612.25	0.47574
612.5	0.47502
612.75	0.47406
613	0.47399
613.25	0.47303
613.5	0.47223
613.75	0.47241
614	0.47165
614.25	0.47162
614.5	0.4716
614.75	0.47215
615	0.47023
615.25	0.4704
615.5	0.47011
615.75	0.47061
616	0.47047
616.25	0.47139
616.5	0.47149
616.75	0.47075
617	0.47025
617.25	0.47028
617.5	0.47038
617.75	0.4707
618	0.47136
618.25	0.47095
618.5	0.47125
618.75	0.47153
619	0.47205
619.25	0.47253
619.5	0.47377
619.75	0.4751
620	0.47579
620.25	0.47848
620.5	0.48076
620.75	0.48391
621	0.48667
621.25	0.48893
621.5	0.49225
621.75	0.49399
622	0.49625
622.25	0.49776
622.5	0.49879
622.75	0.49943
623	0.49954
623.25	0.49978
623.5	0.49885
623.75	0.49771
624	0.49713
624.25	0.49548
624.5	0.49427
624.75	0.4931
625	0.49158
625.25	0.49027
625.5	0.48925
625.75	0.48802
626	0.48722
626.25	0.48621
626.5	0.48424
626.75	0.48306
627	0.48158
627.25	0.48019
627.5	0.47933
627.75	0.47854
628	0.47753
628.25	0.47603
628.5	0.47581
628.75	0.47412
629	0.47346
629.25	0.47146
629.5	0.4714
629.75	0.47139
630	0.47051
630.25	0.46987
630.5	0.47039
630.75	0.46991
631	0.47003
631.25	0.46925
631.5	0.47019
631.75	0.47034
632	0.47106
632.25	0.47107
632.5	0.47119
632.75	0.47056
633	0.47134
633.25	0.47169
633.5	0.47177
633.75	0.4722
634	0.46983
634.25	0.46807
634.5	0.4667
634.75	0.46625
635	0.46609
635.25	0.46623
635.5	0.46516
635.75	0.46544
636	0.46374
636.25	0.46301
636.5	0.46205
636.75	0.46286
637	0.46217
637.25	0.46293
637.5	0.4633
637.75	0.46364
638	0.46425
638.25	0.46459
638.5	0.46359
638.75	0.46526
639	0.4668
639.25	0.46855
639.5	0.47112
639.75	0.47515
640	0.47845
640.25	0.4821
640.5	0.48646
640.75	0.4912
641	0.49652
641.25	0.50189
641.5	0.50775
641.75	0.51399
642	0.51808
642.25	0.52079
642.5	0.52349
642.75	0.52492
643	0.5248
643.25	0.5245
643.5	0.52244
643.75	0.51986
644	0.5155
644.25	0.51041
644.5	0.50507
644.75	0.49951
645	0.49471
645.25	0.48982
645.5	0.48574
645.75	0.48185
646	0.47818
646.25	0.47679
646.5	0.47511
646.75	0.47444
647	0.47548
647.25	0.47788
647.5	0.48127
647.75	0.48495
648	0.48961
648.25	0.49359
648.5	0.49973
648.75	0.50583
649	0.51132
649.25	0.51735
649.5	0.52214
649.75	0.52678
650	0.5286
650.25	0.52858
650.5	0.52808
650.75	0.52627
651	0.52267
651.25	0.52056
651.5	0.51611
651.75	0.50978
652	0.50463
652.25	0.49988
652.5	0.49573
652.75	0.49088
653	0.48668
653.25	0.4823
653.5	0.47807
653.75	0.47497
654	0.47182
654.25	0.4689
654.5	0.46665
654.75	0.46505
655	0.46434
655.25	0.46329
655.5	0.46195
655.75	0.46131
656	0.4608
656.25	0.46071
656.5	0.46018
656.75	0.45937
657	0.45863
657.25	0.45895
657.5	0.45847
657.75	0.45826
658	0.45793
658.25	0.45805
658.5	0.4584
658.75	0.45869
659	0.45933
659.25	0.45925
659.5	0.45907
659.75	0.45963
660	0.45959
660.25	0.45952
660.5	0.46012
660.75	0.46036
661	0.46089
661.25	0.46132
661.5	0.46203
661.75	0.46177
662	0.46259
662.25	0.46219
662.5	0.46286
662.75	0.46271
663	0.46198
663.25	0.46217
663.5	0.46056
663.75	0.45972
664	0.45873
664.25	0.45826
664.5	0.4586
664.75	0.45806
665	0.45752
665.25	0.45701
665.5	0.4568
665.75	0.45764
666	0.45732
666.25	0.45692
666.5	0.45633
666.75	0.45697
667	0.45689
667.25	0.45717
667.5	0.45656
667.75	0.45796
668	0.45825
668.25	0.45838
668.5	0.45864
668.75	0.45962
669	0.45918
669.25	0.45981
669.5	0.46231
669.75	0.46307
670	0.46355
670.25	0.46453
670.5	0.46508
670.75	0.46578
671	0.46573
671.25	0.46486
671.5	0.46534
671.75	0.46492
672	0.4634
672.25	0.46299
672.5	0.46195
672.75	0.46023
673	0.46033
673.25	0.4599
673.5	0.45942
673.75	0.45884
674	0.45932
674.25	0.45907
674.5	0.46
674.75	0.46071
675	0.46216
675.25	0.46464
675.5	0.46861
675.75	0.47265
676	0.47792
676.25	0.48475
676.5	0.49151
676.75	0.49908
677	0.50761
677.25	0.51519
677.5	0.52152
677.75	0.52483
678	0.52583
678.25	0.52399
678.5	0.51878
678.75	0.51203
679	0.50202
679.25	0.49571
679.5	0.48758
679.75	0.48086
680	0.47515
680.25	0.47067
680.5	0.46613
680.75	0.46591
681	0.46342
681.25	0.46176
681.5	0.46061
681.75	0.45946
682	0.45992
682.25	0.4604
682.5	0.4612
682.75	0.4607
683	0.45955
683.25	0.46016
683.5	0.46061
683.75	0.45908
684	0.45994
684.25	0.45937
684.5	0.45909
684.75	0.4595
685	0.46005
685.25	0.46088
685.5	0.46036
685.75	0.46082
686	0.45894
686.25	0.46043
686.5	0.46038
686.75	0.46188
687	0.46151
687.25	0.4628
687.5	0.46344
687.75	0.46275
688	0.46357
688.25	0.4653
688.5	0.46604
688.75	0.46528
689	0.46615
689.25	0.46789
689.5	0.47116
689.75	0.47488
690	0.48011
690.25	0.48647
690.5	0.49266
690.75	0.497
691	0.49963
691.25	0.5032
691.5	0.50353
691.75	0.50252
692	0.49872
692.25	0.4946
692.5	0.48914
692.75	0.48279
693	0.47809
693.25	0.47409
693.5	0.46958
693.75	0.46675
694	0.46403
694.25	0.46252
694.5	0.46285
694.75	0.46215
695	0.46095
695.25	0.46025
695.5	0.46141
695.75	0.46365
696	0.46282
696.25	0.46203
696.5	0.46143
696.75	0.46096
697	0.45938
697.25	0.45844
697.5	0.45757
697.75	0.45716
698	0.45637
698.25	0.45579
698.5	0.4554
698.75	0.45486
699	0.45448
699.25	0.45381
699.5	0.45408
699.75	0.45331
700	0.45337
700.25	0.45299
700.5	0.45275
700.75	0.45285
701	0.45204
701.25	0.45156
701.5	0.45133
701.75	0.45087
702	0.45069
702.25	0.45065
702.5	0.45037
702.75	0.44946
703	0.44876
703.25	0.44874
703.5	0.4481
703.75	0.44748
704	0.44826
704.25	0.44806
704.5	0.44748
704.75	0.44744
705	0.44678
705.25	0.4479
705.5	0.44824
705.75	0.44872
706	0.44968
706.25	0.45258
706.5	0.45414
706.75	0.45649
707	0.45934
707.25	0.46204
707.5	0.46559
707.75	0.468
708	0.47207
708.25	0.47616
708.5	0.47879
708.75	0.48343
709	0.48745
709.25	0.49055
709.5	0.49467
709.75	0.49736
710	0.50039
710.25	0.50375
710.5	0.50707
710.75	0.51019
711	0.51302
711.25	0.51498
711.5	0.51632
711.75	0.51624
712	0.51437
712.25	0.51322
712.5	0.51074
712.75	0.50798
713	0.50317
713.25	0.49949
713.5	0.49505
713.75	0.4897
714	0.48483
714.25	0.47977
714.5	0.47521
714.75	0.47069
715	0.46662
715.25	0.46236
715.5	0.45975
715.75	0.45729
716	0.45562
716.25	0.45416
716.5	0.45298
716.75	0.45601
717	0.45783
717.25	0.4596
717.5	0.46157
717.75	0.46461
718	0.46728
718.25	0.46951
718.5	0.47134
718.75	0.47204
719	0.47225
719.25	0.47261
719.5	0.47189
719.75	0.47045
720	0.46907
720.25	0.46789
720.5	0.4658
720.75	0.46417
721	0.46266
721.25	0.46097
721.5	0.46
721.75	0.45874
722	0.45761
722.25	0.45691
722.5	0.45661
722.75	0.45585
723	0.45506
723.25	0.45487
723.5	0.45451
723.75	0.45416
724	0.45388
724.25	0.45385
724.5	0.45336
724.75	0.45269
725	0.45228
725.25	0.45171
725.5	0.45092
725.75	0.45027
726	0.44987
726.25	0.44917
726.5	0.44845
726.75	0.44828
727	0.44855
727.25	0.44838
727.5	0.44845
727.75	0.4484
728	0.44872
728.25	0.44931
728.5	0.45005
728.75	0.45101
729	0.45275
729.25	0.45415
729.5	0.45517
729.75	0.45642
730	0.45767
730.25	0.45918
730.5	0.46019
730.75	0.46147
731	0.46298
731.25	0.46408
731.5	0.46532
731.75	0.46644
732	0.46722
732.25	0.4672
732.5	0.46774
732.75	0.46722
733	0.46606
733.25	0.46465
733.5	0.46373
733.75	0.46272
734	0.46304
734.25	0.46368
734.5	0.46388
734.75	0.46546
735	0.46619
735.25	0.46917
735.5	0.47154
735.75	0.47346
736	0.47608
736.25	0.47968
736.5	0.48304
736.75	0.48551
737	0.4879
737.25	0.48842
737.5	0.48853
737.75	0.4882
738	0.4872
738.25	0.48522
738.5	0.4833
738.75	0.47979
739	0.47648
739.25	0.47277
739.5	0.46848
739.75	0.46488
740	0.46099
740.25	0.45874
740.5	0.45432
740.75	0.45132
741	0.44831
741.25	0.44541
741.5	0.4429
741.75	0.4413
742	0.43977
742.25	0.43849
742.5	0.4374
742.75	0.43679
743	0.43696
743.25	0.43681
743.5	0.43709
743.75	0.43664
744	0.43648
744.25	0.43688
744.5	0.43716
744.75	0.4375
745	0.43725
745.25	0.43759
745.5	0.43761
745.75	0.4379
746	0.43746
746.25	0.43787
746.5	0.43815
746.75	0.4383
747	0.43839
747.25	0.43841
747.5	0.43867
747.75	0.43841
748	0.43901
748.25	0.43847
748.5	0.43905
748.75	0.43935
749	0.44031
749.25	0.44032
749.5	0.44175
749.75	0.44242
750	0.4435
750.25	0.44399
750.5	0.44573
750.75	0.4474
751	0.44917
751.25	0.45051
751.5	0.45216
751.75	0.45412
752	0.45567
752.25	0.45731
752.5	0.46049
752.75	0.46348
753	0.46801
753.25	0.46996
753.5	0.4724
753.75	0.47708
754	0.48037
754.25	0.48365
754.5	0.48654
754.75	0.48897
755	0.49168
755.25	0.49384
755.5	0.49576
755.75	0.49753
756	0.49785
756.25	0.49854
756.5	0.49873
756.75	0.49756
757	0.49638
757.25	0.49419
757.5	0.49051
757.75	0.48792
758	0.48443
758.25	0.48002
758.5	0.47602
758.75	0.47198
759	0.46692
759.25	0.46209
759.5	0.45909
759.75	0.45611
760	0.45225
760.25	0.45026
760.5	0.44814
760.75	0.44822
761	0.44845
761.25	0.44889
761.5	0.451
761.75	0.453
762	0.45701
762.25	0.45972
762.5	0.46354
762.75	0.4694
763	0.47384
763.25	0.4777
763.5	0.48072
763.75	0.48361
764	0.48473
764.25	0.48462
764.5	0.48255
764.75	0.47935
765	0.47614
765.25	0.4718
765.5	0.46529
765.75	0.45863
766	0.45479
766.25	0.44972
766.5	0.44579
766.75	0.44171
767	0.44
767.25	0.43911
767.5	0.43898
767.75	0.43929
768	0.44119
768.25	0.44435
768.5	0.44927
768.75	0.4541
769	0.46097
769.25	0.46757
769.5	0.47412
769.75	0.4802
770	0.48524
770.25	0.49129
770.5	0.49523
770.75	0.49615
771	0.49534
771.25	0.49477
771.5	0.49395
771.75	0.49027
772	0.48563
772.25	0.48006
772.5	0.47335
772.75	0.46638
773	0.46015
773.25	0.4537
773.5	0.44625
773.75	0.43717
774	0.43911
774.25	0.43658
774.5	0.43211
774.75	0.43403
775	0.43282
775.25	0.43208
775.5	0.43204
775.75	0.4359
776	0.4401
776.25	0.44049
776.5	0.44811
776.75	0.45315
777	0.45625
777.25	0.46052
777.5	0.46589
777.75	0.47028
778	0.4739
778.25	0.47562
778.5	0.47717
778.75	0.47897
779	0.48087
779.25	0.48074
779.5	0.47855
779.75	0.47763
780	0.47823
780.25	0.47789
780.5	0.475
780.75	0.47228
781	0.46867
781.25	0.46505
781.5	0.46021
781.75	0.45636
782	0.45313
782.25	0.45039
782.5	0.44878
782.75	0.44735
783	0.44608
783.25	0.44588
783.5	0.44616
783.75	0.44598
784	0.44611
784.25	0.44659
784.5	0.4463
784.75	0.4458
785	0.44568
785.25	0.44478
785.5	0.44364
785.75	0.44143
786	0.43964
786.25	0.43803
786.5	0.43541
786.75	0.43408
787	0.43209
787.25	0.42966
787.5	0.42822
787.75	0.42684
788	0.42622
788.25	0.42504
788.5	0.42472
788.75	0.42562
789	0.4255
789.25	0.42546
789.5	0.42447
789.75	0.42412
790	0.42361
790.25	0.42344
790.5	0.42342
790.75	0.42296
791	0.42293
791.25	0.42267
791.5	0.42239
791.75	0.42264
792	0.42226
792.25	0.42219
792.5	0.42253
792.75	0.42313
793	0.42318
793.25	0.42386
793.5	0.42456
793.75	0.42552
794	0.42653
794.25	0.42783
794.5	0.42988
794.75	0.43178
795	0.43373
795.25	0.43614
795.5	0.4385
795.75	0.44108
796	0.44442
796.25	0.4478
796.5	0.45184
796.75	0.45665
797	0.46195
797.25	0.46842
797.5	0.4749
797.75	0.48218
798	0.48911
798.25	0.49616
798.5	0.50351
798.75	0.51046
799	0.51549
799.25	0.51953
799.5	0.52264
799.75	0.52496
800	0.52712
800.25	0.52706
800.5	0.52585
800.75	0.52394
801	0.5213
801.25	0.51811
801.5	0.51356
801.75	0.50939
802	0.50446
802.25	0.49947
802.5	0.4948
802.75	0.48983
803	0.48515
803.25	0.47935
803.5	0.47486
803.75	0.46838
804	0.46332
804.25	0.45911
804.5	0.45596
804.75	0.45298
805	0.45015
805.25	0.44703
805.5	0.44401
805.75	0.44165
806	0.4395
806.25	0.43824
806.5	0.43674
806.75	0.43574
807	0.43457
807.25	0.43397
807.5	0.43396
807.75	0.43385
808	0.43296
808.25	0.43489
808.5	0.4367
808.75	0.43817
809	0.4393
809.25	0.44019
809.5	0.44183
809.75	0.44387
810	0.44635
810.25	0.44984
810.5	0.45406
810.75	0.45599
811	0.45803
811.25	0.46058
811.5	0.46206
811.75	0.46364
812	0.46605
812.25	0.46812
812.5	0.46975
812.75	0.47095
813	0.47112
813.25	0.47102
813.5	0.47031
813.75	0.47007
814	0.46878
814.25	0.46681
814.5	0.46485
814.75	0.46191
815	0.45905
815.25	0.45642
815.5	0.45394
815.75	0.45166
816	0.44994
816.25	0.44799
816.5	0.44655
816.75	0.44442
817	0.44218
817.25	0.44076
817.5	0.43944
817.75	0.43853
818	0.43258
818.25	0.43456
818.5	0.43039
818.75	0.42615
819	0.42531
819.25	0.42486
819.5	0.4241
819.75	0.42295
820	0.42185
820.25	0.42089
820.5	0.41944
820.75	0.41839
821	0.41706
821.25	0.41641
821.5	0.41559
821.75	0.41359
822	0.41674
822.25	0.41791
822.5	0.41625
822.75	0.4163
823	0.41565
823.25	0.41411
823.5	0.41414
823.75	0.41286
824	0.41177
824.25	0.41126
824.5	0.41082
824.75	0.41066
825	0.40923
825.25	0.40839
825.5	0.40996
825.75	0.40852
826	0.40823
826.25	0.40842
826.5	0.40732
826.75	0.40761
827	0.40855
827.25	0.40851
827.5	0.40836
827.75	0.4093
828	0.41015
828.25	0.41026
828.5	0.41131
828.75	0.41266
829	0.41369
829.25	0.41482
829.5	0.41622
829.75	0.41737
830	0.41852
830.25	0.42057
830.5	0.42188
830.75	0.4231
831	0.42377
831.25	0.42525
831.5	0.42653
831.75	0.42734
832	0.42779
832.25	0.42737
832.5	0.42989
832.75	0.43015
833	0.43031
833.25	0.4303
833.5	0.43003
833.75	0.43015
834	0.42948
834.25	0.42933
834.5	0.42926
834.75	0.42879
835	0.42816
835.25	0.42777
835.5	0.42705
835.75	0.42643
836	0.42637
836.25	0.42624
836.5	0.42596
836.75	0.42595
837	0.42629
837.25	0.42717
837.5	0.42859
837.75	0.42983
838	0.43217
838.25	0.43505
838.5	0.43761
838.75	0.44111
839	0.44404
839.25	0.44763
839.5	0.45164
839.75	0.45643
840	0.46055
840.25	0.46425
840.5	0.46763
840.75	0.4704
841	0.47129
841.25	0.47272
841.5	0.47286
841.75	0.47261
842	0.47105
842.25	0.46981
842.5	0.46781
842.75	0.46571
843	0.46345
843.25	0.46063
843.5	0.4577
843.75	0.45541
844	0.45292
844.25	0.45053
844.5	0.4478
844.75	0.44609
845	0.44376
845.25	0.44244
845.5	0.44108
845.75	0.43999
846	0.43948
846.25	0.43947
846.5	0.43843
846.75	0.43796
847	0.43796
847.25	0.43734
847.5	0.43718
847.75	0.4371
848	0.43637
848.25	0.43629
848.5	0.43597
848.75	0.43587
849	0.43541
849.25	0.43527
849.5	0.43422
849.75	0.43366
850	0.43463
850.25	0.43359
850.5	0.43343
850.75	0.43385
851	0.4343
851.25	0.43441
851.5	0.43466
851.75	0.43462
852	0.43584
852.25	0.43542
852.5	0.43603
852.75	0.43647
853	0.43744
853.25	0.43826
853.5	0.43918
853.75	0.44266
854	0.44438
854.25	0.44599
854.5	0.44715
854.75	0.4449
855	0.44606
855.25	0.44706
855.5	0.4473
855.75	0.44831
856	0.4479
856.25	0.44837
856.5	0.44874
856.75	0.44867
857	0.44872
857.25	0.44852
857.5	0.44917
857.75	0.44934
858	0.44991
858.25	0.45016
858.5	0.45114
858.75	0.45206
859	0.45274
859.25	0.45405
859.5	0.45614
859.75	0.45804
860	0.46105
860.25	0.46327
860.5	0.4648
860.75	0.46661
861	0.46836
861.25	0.47073
861.5	0.47221
861.75	0.47298
862	0.47367
862.25	0.47517
862.5	0.47437
862.75	0.4748
863	0.47478
863.25	0.47483
863.5	0.47485
863.75	0.47536
864	0.47571
864.25	0.47707
864.5	0.47739
864.75	0.47807
865	0.47926
865.25	0.4805
865.5	0.48095
865.75	0.48099
866	0.48059
866.25	0.48024
866.5	0.47937
866.75	0.47853
867	0.47669
867.25	0.47546
867.5	0.47434
867.75	0.47308
868	0.47232
868.25	0.4714
868.5	0.47097
868.75	0.47055
869	0.47017
869.25	0.46963
869.5	0.46886
869.75	0.46872
870	0.46759
870.25	0.46708
870.5	0.46718
870.75	0.46638
871	0.46727
871.25	0.46759
871.5	0.46745
871.75	0.46753
872	0.46828
872.25	0.46897
872.5	0.47059
872.75	0.47167
873	0.47369
873.25	0.47441
873.5	0.47621
873.75	0.47819
874	0.48013
874.25	0.48108
874.5	0.48163
874.75	0.48454
875	0.48482
875.25	0.48555
875.5	0.48575
875.75	0.48631
876	0.48646
876.25	0.48599
876.5	0.48397
876.75	0.4822
877	0.47962
877.25	0.47692
877.5	0.47252
877.75	0.47154
878	0.46929
878.25	0.46741
878.5	0.46559
878.75	0.46318
879	0.4615
879.25	0.45939
879.5	0.45705
879.75	0.45578
880	0.45419
880.25	0.45222
880.5	0.45103
880.75	0.44961
881	0.44868
881.25	0.44763
881.5	0.44679
881.75	0.44581
882	0.44535
882.25	0.44467
882.5	0.44385
882.75	0.44274
883	0.442
883.25	0.44107
883.5	0.44096
883.75	0.43984
884	0.4392
884.25	0.43952
884.5	0.43949
884.75	0.43912
885	0.4385
885.25	0.43885
885.5	0.43879
885.75	0.43934
886	0.43955
886.25	0.43914
886.5	0.43865
886.75	0.43795
887	0.43766
887.25	0.43769
887.5	0.43777
887.75	0.43809
888	0.43818
888.25	0.43822
888.5	0.43905
888.75	0.44009
889	0.44025
889.25	0.44049
889.5	0.44035
889.75	0.4403
890	0.44041
890.25	0.43997
890.5	0.43948
890.75	0.4399
891	0.44012
891.25	0.44063
891.5	0.44103
891.75	0.44256
892	0.44241
892.25	0.44319
892.5	0.44303
892.75	0.44185
893	0.44174
893.25	0.44163
893.5	0.44219
893.75	0.44207
894	0.44162
894.25	0.44033
894.5	0.44045
894.75	0.44006
895	0.4402
895.25	0.43987
895.5	0.43984
895.75	0.44014
896	0.44007
896.25	0.43977
896.5	0.43962
896.75	0.43925
897	0.43977
897.25	0.43907
897.5	0.43848
897.75	0.43829
898	0.43811
898.25	0.4379
898.5	0.43775
898.75	0.43803
899	0.43827
899.25	0.4383
899.5	0.43856
899.75	0.4386
900	0.43877
900.25	0.43888
900.5	0.43913
900.75	0.43882
901	0.43934
901.25	0.43926
901.5	0.43966
901.75	0.43949
902	0.43986
902.25	0.43949
902.5	0.43998
902.75	0.43944
903	0.43905
903.25	0.43839
903.5	0.43816
903.75	0.43691
904	0.43629
904.25	0.43548
904.5	0.43485
904.75	0.43472
905	0.43362
905.25	0.4335
905.5	0.4333
905.75	0.43167
906	0.43056
906.25	0.43027
906.5	0.42995
906.75	0.42915
907	0.42887
907.25	0.4283
907.5	0.42742
907.75	0.42744
908	0.4266
908.25	0.42619
908.5	0.4253
908.75	0.4245
909	0.42408
909.25	0.42395
909.5	0.42346
909.75	0.42282
910	0.42241
910.25	0.4233
910.5	0.42349
910.75	0.42295
911	0.4229
911.25	0.42181
911.5	0.42185
911.75	0.42166
912	0.42196
912.25	0.42223
912.5	0.42216
912.75	0.42246
913	0.42217
913.25	0.42199
913.5	0.42123
913.75	0.42099
914	0.42136
914.25	0.42152
914.5	0.42129
914.75	0.42128
915	0.42109
915.25	0.42113
915.5	0.42125
915.75	0.42097
916	0.4209
916.25	0.42153
916.5	0.42148
916.75	0.42161
917	0.42154
917.25	0.422
917.5	0.42173
917.75	0.4219
918	0.42147
918.25	0.42158
918.5	0.42161
918.75	0.42084
919	0.42019
919.25	0.42012
919.5	0.42029
919.75	0.41999
920	0.42003
920.25	0.41949
920.5	0.41967
920.75	0.41948
921	0.41908
921.25	0.41928
921.5	0.41912
921.75	0.41894
922	0.41905
922.25	0.41912
922.5	0.41971
922.75	0.41941
923	0.41943
923.25	0.41932
923.5	0.41943
923.75	0.41902
924	0.41963
924.25	0.42085
924.5	0.42033
924.75	0.42086
925	0.41942
925.25	0.41982
925.5	0.42043
925.75	0.4205
926	0.42006
926.25	0.42008
926.5	0.42004
926.75	0.41936
927	0.41935
927.25	0.41903
927.5	0.41868
927.75	0.41751
928	0.41771
928.25	0.41791
928.5	0.41807
928.75	0.41781
929	0.41752
929.25	0.41748
929.5	0.4192
929.75	0.41828
930	0.41673
930.25	0.41674
930.5	0.41646
930.75	0.41683
931	0.41666
931.25	0.41765
931.5	0.41829
931.75	0.41843
932	0.41868
932.25	0.41837
932.5	0.4183
932.75	0.41976
933	0.41929
933.25	0.41972
933.5	0.41874
933.75	0.41921
934	0.42033
934.25	0.42065
934.5	0.42117
934.75	0.4209
935	0.42061
935.25	0.42111
935.5	0.42212
935.75	0.42113
936	0.42175
936.25	0.42194
936.5	0.42259
936.75	0.42108
937	0.4208
937.25	0.41869
937.5	0.42061
937.75	0.42073
938	0.42093
938.25	0.42095
938.5	0.42133
938.75	0.42099
939	0.42076
939.25	0.4215
939.5	0.42371
939.75	0.42235
940	0.42342
940.25	0.42243
940.5	0.42347
940.75	0.42314
941	0.42416
941.25	0.42452
941.5	0.42452
941.75	0.42432
942	0.42397
942.25	0.42452
942.5	0.42545
942.75	0.42519
943	0.42576
943.25	0.42578
943.5	0.42531
943.75	0.42552
944	0.42523
944.25	0.42554
944.5	0.42557
944.75	0.42618
945	0.42676
945.25	0.42707
945.5	0.42682
945.75	0.42683
946	0.42651
946.25	0.42634
946.5	0.42575
946.75	0.42587
947	0.42515
947.25	0.42567
947.5	0.42559
947.75	0.42673
948	0.42749
948.25	0.42788
948.5	0.42843
948.75	0.42848
949	0.42985
949.25	0.42946
949.5	0.43044
949.75	0.43003
950	0.43037
950.25	0.43101
950.5	0.43184
950.75	0.43252
951	0.4334
951.25	0.43424
951.5	0.43542
951.75	0.43793
952	0.43961
952.25	0.44073
952.5	0.44183
952.75	0.44262
953	0.44448
953.25	0.4467
953.5	0.44809
953.75	0.44906
954	0.45072
954.25	0.45231
954.5	0.45433
954.75	0.45644
955	0.45793
955.25	0.45956
955.5	0.46123
955.75	0.46231
956	0.4632
956.25	0.46369
956.5	0.46401
956.75	0.46407
957	0.4645
957.25	0.46538
957.5	0.46689
957.75	0.46823
958	0.46979
958.25	0.47142
958.5	0.47229
958.75	0.4729
959	0.47394
959.25	0.47427
959.5	0.47459
959.75	0.47555
960	0.47669
960.25	0.47721
960.5	0.478
960.75	0.47841
961	0.47807
961.25	0.47702
961.5	0.47721
961.75	0.47501
962	0.47393
962.25	0.47178
962.5	0.47108
962.75	0.46986
963	0.46716
963.25	0.46592
963.5	0.4668
963.75	0.46622
964	0.46567
964.25	0.46445
964.5	0.46368
964.75	0.46271
965	0.46074
965.25	0.45845
965.5	0.458
965.75	0.45603
966	0.45461
966.25	0.45351
966.5	0.45179
966.75	0.44973
967	0.44738
967.25	0.44581
967.5	0.44481
967.75	0.44438
968	0.44347
968.25	0.44243
968.5	0.44154
968.75	0.43885
969	0.4365
969.25	0.436
969.5	0.4372
969.75	0.43725
970	0.43589
970.25	0.4354
970.5	0.43441
970.75	0.43374
971	0.43378
971.25	0.4336
971.5	0.43355
971.75	0.43354
972	0.43307
972.25	0.43265
972.5	0.43221
972.75	0.43244
973	0.43325
973.25	0.43229
973.5	0.43338
973.75	0.4322
974	0.43226
974.25	0.43246
974.5	0.43249
974.75	0.43221
975	0.4321
975.25	0.43203
975.5	0.43297
975.75	0.43333
976	0.4338
976.25	0.43438
976.5	0.43447
976.75	0.43405
977	0.43354
977.25	0.43404
977.5	0.43387
977.75	0.43394
978	0.43358
978.25	0.4339
978.5	0.43417
978.75	0.43462
979	0.43457
979.25	0.43594
979.5	0.43572
979.75	0.43651
980	0.434
980.25	0.43596
980.5	0.43625
980.75	0.43622
981	0.43593
981.25	0.43605
981.5	0.43606
981.75	0.43574
982	0.43506
982.25	0.43528
982.5	0.43562
982.75	0.43581
983	0.43664
983.25	0.43642
983.5	0.43581
983.75	0.43606
984	0.43525
984.25	0.43501
984.5	0.43419
984.75	0.43414
985	0.43425
985.25	0.43386
985.5	0.43335
985.75	0.43333
986	0.43258
986.25	0.43065
986.5	0.43147
986.75	0.43104
987	0.43054
987.25	0.43045
987.5	0.43031
987.75	0.43023
988	0.43004
988.25	0.43019
988.5	0.4299
988.75	0.43004
989	0.42974
989.25	0.43081
989.5	0.42938
989.75	0.42976
990	0.42869
990.25	0.43002
990.5	0.42971
990.75	0.42976
991	0.4299
991.25	0.43008
991.5	0.42994
991.75	0.43097
992	0.43056
992.25	0.43088
992.5	0.4299
992.75	0.43082
993	0.43203
993.25	0.43096
993.5	0.43132
993.75	0.43187
994	0.43126
994.25	0.4318
994.5	0.432
994.75	0.4327
995	0.43284
995.25	0.43202
995.5	0.43267
995.75	0.43348
996	0.43346
996.25	0.4343
996.5	0.43513
996.75	0.43514
997	0.43615
997.25	0.43553
997.5	0.43654
997.75	0.43639
998	0.43494
998.25	0.43421
998.5	0.43551
998.75	0.43649
999	0.43782
999.25	0.43782
999.5	0.43725
999.75	0.43758
1000	0.43802
1000.25	0.43864
1000.5	0.43909
1000.75	0.43959
1001	0.43967
1001.25	0.44023
1001.5	0.44313
1001.75	0.43997
1002	0.44122
1002.25	0.44223
1002.5	0.44206
1002.75	0.44218
1003	0.44218
1003.25	0.44212
1003.5	0.4434
1003.75	0.44338
1004	0.44555
1004.25	0.44571
1004.5	0.44595
1004.75	0.447
1005	0.4458
1005.25	0.44593
1005.5	0.44604
1005.75	0.4457
1006	0.44663
1006.25	0.44809
1006.5	0.44952
1006.75	0.45065
1007	0.45269
1007.25	0.45234
1007.5	0.45225
1007.75	0.45368
1008	0.45319
1008.25	0.45639
1008.5	0.45695
1008.75	0.45705
1009	0.4562
1009.25	0.45651
1009.5	0.45598
1009.75	0.4555
1010	0.45538
1010.25	0.45431
1010.5	0.4537
1010.75	0.45442
1011	0.45513
1011.25	0.45613
1011.5	0.45604
1011.75	0.45659
1012	0.45745
1012.25	0.45703
1012.5	0.45818
1012.75	0.45835
1013	0.45897
1013.25	0.45976
1013.5	0.45951
1013.75	0.45932
1014	0.45932
1014.25	0.4601
1014.5	0.46099
1014.75	0.45998
1015	0.45967
1015.25	0.46105
1015.5	0.45732
1015.75	0.4588
1016	0.45909
1016.25	0.45807
1016.5	0.4573
1016.75	0.4563
1017	0.45652
1017.25	0.4562
1017.5	0.45723
1017.75	0.45694
1018	0.45685
1018.25	0.4567
1018.5	0.45694
1018.75	0.45698
1019	0.45688
1019.25	0.45666
1019.5	0.4561
1019.75	0.45614
1020	0.45653
1020.25	0.45655
1020.5	0.45573
1020.75	0.45796
1021	0.45597
1021.25	0.45539
1021.5	0.45465
1021.75	0.45465
1022	0.4545
1022.25	0.45452
1022.5	0.45496
1022.75	0.45471
1023	0.45475
1023.25	0.45424
1023.5	0.45486
1023.75	0.45419
1024	0.4546
1024.25	0.45423
1024.5	0.45243
1024.75	0.45169
1025	0.45169
1025.25	0.45251
1025.5	0.45307
1025.75	0.45237
1026	0.45116
1026.25	0.44999
1026.5	0.45093
1026.75	0.45237
1027	0.45235
1027.25	0.45263
1027.5	0.45204
1027.75	0.45126
1028	0.45238
1028.25	0.45237
1028.5	0.45325
1028.75	0.45232
1029	0.45279
1029.25	0.45196
1029.5	0.45402
1029.75	0.45396
1030	0.45484
1030.25	0.45758
1030.5	0.45824
1030.75	0.45947
1031	0.45896
1031.25	0.45862
1031.5	0.45939
1031.75	0.45991
1032	0.46211
1032.25	0.46018
1032.5	0.46096
1032.75	0.46029
1033	0.46109
1033.25	0.45875
1033.5	0.45793
1033.75	0.46106
1034	0.46009
1034.25	0.45862
1034.5	0.45714
1034.75	0.45743
1035	0.45795
1035.25	0.45512
1035.5	0.45687
1035.75	0.4574
1036	0.45805
1036.25	0.45817
1036.5	0.4578
1036.75	0.45818
1037	0.45836
1037.25	0.45763
1037.5	0.45683
1037.75	0.45746
1038	0.45845
1038.25	0.45813
1038.5	0.45735
1038.75	0.45757
1039	0.45838
1039.25	0.46017
1039.5	0.46026
1039.75	0.46029
1040	0.46034
1040.25	0.45981
1040.5	0.46073
1040.75	0.46137
1041	0.46183
1041.25	0.46173
1041.5	0.4627
1041.75	0.46278
1042	0.46324
1042.25	0.46351
1042.5	0.46308
1042.75	0.46301
1043	0.46376
1043.25	0.4632
1043.5	0.46342
1043.75	0.46329
1044	0.46335
1044.25	0.46369
1044.5	0.46277
1044.75	0.46281
1045	0.46274
1045.25	0.46306
1045.5	0.4632
1045.75	0.46304
1046	0.46311
1046.25	0.46365
1046.5	0.46431
1046.75	0.46472
1047	0.46466
1047.25	0.46572
1047.5	0.46628
1047.75	0.46593
1048	0.46607
1048.25	0.46897
1048.5	0.4676
1048.75	0.46982
1049	0.47052
1049.25	0.47031
1049.5	0.47095
1049.75	0.4712
1050	0.46994
1050.25	0.4706
1050.5	0.47196
1050.75	0.4726
1051	0.47309
1051.25	0.47343
1051.5	0.47279
1051.75	0.47236
1052	0.47388
1052.25	0.47448
1052.5	0.47177
1052.75	0.47173
1053	0.47304
1053.25	0.47317
1053.5	0.47251
1053.75	0.47336
1054	0.47465
1054.25	0.47118
1054.5	0.47251
1054.75	0.47279
1055	0.47264
1055.25	0.4745
1055.5	0.47747
1055.75	0.4781
1056	0.4759
1056.25	0.47487
1056.5	0.47517
1056.75	0.47547
1057	0.47564
1057.25	0.47498
1057.5	0.47458
1057.75	0.47483
1058	0.47718
1058.25	0.47873
1058.5	0.47885
1058.75	0.47834
1059	0.47773
1059.25	0.47866
1059.5	0.47937
1059.75	0.47907
1060	0.47821
1060.25	0.4776
1060.5	0.47861
1060.75	0.47913
1061	0.47897
1061.25	0.48038
1061.5	0.48012
1061.75	0.47885
1062	0.47987
1062.25	0.48007
1062.5	0.48067
1062.75	0.48082
1063	0.47907
1063.25	0.47875
1063.5	0.4789
1063.75	0.47899
1064	0.47903
1064.25	0.47858
1064.5	0.4783
1064.75	0.47829
1065	0.47852
1065.25	0.47877
1065.5	0.47803
1065.75	0.4784
1066	0.47896
1066.25	0.47887
1066.5	0.47893
1066.75	0.47858
1067	0.4791
1067.25	0.47966
1067.5	0.47942
1067.75	0.48088
1068	0.48083
1068.25	0.48104
1068.5	0.48153
1068.75	0.48244
1069	0.48236
1069.25	0.48272
1069.5	0.48231
1069.75	0.48283
1070	0.48321
1070.25	0.48322
1070.5	0.48242
1070.75	0.48271
1071	0.48244
1071.25	0.48233
1071.5	0.48214
1071.75	0.48159
1072	0.48246
1072.25	0.48173
1072.5	0.48069
1072.75	0.48052
1073	0.47895
1073.25	0.4785
1073.5	0.47866
1073.75	0.47732
1074	0.47667
1074.25	0.47651
1074.5	0.4765
1074.75	0.47546
1075	0.4748
1075.25	0.47446
1075.5	0.47359
1075.75	0.4734
1076	0.47307
1076.25	0.47318
1076.5	0.47353
1076.75	0.47327
1077	0.47338
1077.25	0.47353
1077.5	0.474
1077.75	0.4739
1078	0.47448
1078.25	0.47492
1078.5	0.47532
1078.75	0.47599
1079	0.47721
1079.25	0.47733
1079.5	0.47793
1079.75	0.47822
1080	0.47876
1080.25	0.47901
1080.5	0.4784
1080.75	0.47947
1081	0.4802
1081.25	0.48029
1081.5	0.47987
1081.75	0.47996
1082	0.47992
1082.25	0.47958
1082.5	0.47936
1082.75	0.47957
1083	0.48036
1083.25	0.47986
1083.5	0.47963
1083.75	0.47961
1084	0.47967
1084.25	0.47974
1084.5	0.47987
1084.75	0.48043
1085	0.48099
1085.25	0.48132
1085.5	0.48211
1085.75	0.48271
1086	0.48378
1086.25	0.48415
1086.5	0.48433
1086.75	0.48413
1087	0.484
1087.25	0.48312
1087.5	0.48305
1087.75	0.48216
1088	0.48294
1088.25	0.48076
1088.5	0.48083
1088.75	0.48122
1089	0.48174
1089.25	0.4819
1089.5	0.48134
1089.75	0.48109
1090	0.48125
1090.25	0.48111
1090.5	0.48118
1090.75	0.48109
1091	0.48155
1091.25	0.48136
1091.5	0.48148
1091.75	0.48048
1092	0.47966
1092.25	0.4795
1092.5	0.47941
1092.75	0.47835
1093	0.47786
1093.25	0.47819
1093.5	0.47955
1093.75	0.47974
1094	0.48003
1094.25	0.48081
1094.5	0.47973
1094.75	0.48193
1095	0.48135
1095.25	0.48164
1095.5	0.48068
1095.75	0.4815
1096	0.48155
1096.25	0.48086
1096.5	0.48218
1096.75	0.48246
1097	0.48128
1097.25	0.48305
1097.5	0.48335
1097.75	0.48339
1098	0.48368
1098.25	0.48221
1098.5	0.4825
1098.75	0.48149
1099	0.48099
1099.25	0.47959
1099.5	0.48013
1099.75	0.48079
1100	0.48069
1100.25	0.48114
1100.5	0.48132
1100.75	0.48012
1101	0.48261
1101.25	0.48313
1101.5	0.48113
1101.75	0.48269
1102	0.48366
1102.25	0.48576
1102.5	0.48638
1102.75	0.48603
1103	0.48621
1103.25	0.48611
1103.5	0.48646
1103.75	0.48656
1104	0.48769
1104.25	0.4864
1104.5	0.48735
1104.75	0.48906
1105	0.48938
1105.25	0.48941
1105.5	0.48892
1105.75	0.48969
1106	0.48951
1106.25	0.48971
1106.5	0.49037
1106.75	0.49074
1107	0.4909
1107.25	0.49041
1107.5	0.49148
1107.75	0.49114
1108	0.49217
1108.25	0.49228
1108.5	0.49345
1108.75	0.49524
1109	0.49435
1109.25	0.49371
1109.5	0.4946
1109.75	0.49492
1110	0.49498
1110.25	0.49705
1110.5	0.49629
1110.75	0.49697
1111	0.49798
1111.25	0.49867
1111.5	0.49985
1111.75	0.50067
1112	0.50102
1112.25	0.50171
1112.5	0.50177
1112.75	0.50258
1113	0.50269
1113.25	0.50227
1113.5	0.50062
1113.75	0.50195
1114	0.50418
1114.25	0.50456
1114.5	0.50531
1114.75	0.50508
1115	0.50553
1115.25	0.50702
1115.5	0.50641
1115.75	0.50766
1116	0.50922
1116.25	0.51004
1116.5	0.50894
1116.75	0.51035
1117	0.50988
1117.25	0.51013
1117.5	0.50926
1117.75	0.51262
1118	0.51318
1118.25	0.51392
1118.5	0.51612
1118.75	0.51616
1119	0.51605
1119.25	0.51618
1119.5	0.51614
1119.75	0.51625
1120	0.51627
1120.25	0.51728
1120.5	0.51725
1120.75	0.51665
1121	0.51793
1121.25	0.51934
1121.5	0.51961
1121.75	0.52043
1122	0.52062
1122.25	0.5204
1122.5	0.52048
1122.75	0.52069
1123	0.52252
1123.25	0.52164
1123.5	0.52245
1123.75	0.52336
1124	0.52134
1124.25	0.52212
1124.5	0.52244
1124.75	0.52115
1125	0.52136
1125.25	0.52234
1125.5	0.52161
1125.75	0.5198
1126	0.5198
1126.25	0.52197
1126.5	0.52218
1126.75	0.52217
1127	0.52212
1127.25	0.5225
1127.5	0.52276
1127.75	0.5241
1128	0.52263
1128.25	0.52398
1128.5	0.52214
1128.75	0.52147
1129	0.52366
1129.25	0.52382
1129.5	0.52202
1129.75	0.52224
1130	0.52203
1130.25	0.52302
1130.5	0.5223
1130.75	0.52322
1131	0.52361
1131.25	0.52417
1131.5	0.52368
1131.75	0.5251
1132	0.52602
1132.25	0.52722
1132.5	0.52663
1132.75	0.52583
1133	0.52744
1133.25	0.5275
1133.5	0.52698
1133.75	0.52694
1134	0.52578
1134.25	0.52763
1134.5	0.52892
1134.75	0.52729
1135	0.52781
1135.25	0.52656
1135.5	0.52547
1135.75	0.52483
1136	0.5232
1136.25	0.52211
1136.5	0.52235
1136.75	0.52258
1137	0.52203
1137.25	0.52221
1137.5	0.52205
1137.75	0.52017
1138	0.52013
1138.25	0.51903
1138.5	0.51857
1138.75	0.51773
1139	0.51946
1139.25	0.51963
1139.5	0.51908
1139.75	0.5184
1140	0.52049
1140.25	0.52123
1140.5	0.52203
1140.75	0.52153
1141	0.52288
1141.25	0.5225
1141.5	0.52253
1141.75	0.52194
1142	0.52237
1142.25	0.52195
1142.5	0.52069
1142.75	0.5212
1143	0.52143
1143.25	0.52199
1143.5	0.52115
1143.75	0.5208
1144	0.52243
1144.25	0.52167
1144.5	0.52006
1144.75	0.5212
1145	0.51949
1145.25	0.52082
1145.5	0.52191
1145.75	0.52069
1146	0.52199
1146.25	0.52171
1146.5	0.52252
1146.75	0.52322
1147	0.52227
1147.25	0.52054
1147.5	0.52168
1147.75	0.52323
1148	0.52211
1148.25	0.5217
1148.5	0.52274
1148.75	0.52099
1149	0.52153
1149.25	0.52053
1149.5	0.52004
1149.75	0.52136
1150	0.52155
1150.25	0.52069
1150.5	0.52092
1150.75	0.52061
1151	0.52143
1151.25	0.51955
1151.5	0.52166
1151.75	0.52137
1152	0.52182
1152.25	0.52136
1152.5	0.52139
1152.75	0.52102
1153	0.52015
1153.25	0.5188
1153.5	0.51925
1153.75	0.52162
1154	0.52071
1154.25	0.51914
1154.5	0.52079
1154.75	0.52219
1155	0.52135
1155.25	0.52127
1155.5	0.52159
1155.75	0.52157
1156	0.52133
1156.25	0.52206
1156.5	0.52249
1156.75	0.52206
1157	0.52134
1157.25	0.5221
1157.5	0.52269
1157.75	0.52306
1158	0.52374
1158.25	0.52383
1158.5	0.52355
1158.75	0.5235
1159	0.52309
1159.25	0.52221
1159.5	0.52229
1159.75	0.522
1160	0.52246
1160.25	0.5222
1160.5	0.52156
1160.75	0.52172
1161	0.52263
1161.25	0.52339
1161.5	0.52404
1161.75	0.52343
1162	0.52345
1162.25	0.5237
1162.5	0.52364
1162.75	0.52402
1163	0.52356
1163.25	0.52236
1163.5	0.52283
1163.75	0.52263
1164	0.52217
1164.25	0.52091
1164.5	0.52005
1164.75	0.52004
1165	0.52042
1165.25	0.52027
1165.5	0.51732
1165.75	0.518
1166	0.51916
1166.25	0.51766
1166.5	0.51875
1166.75	0.51823
1167	0.51893
1167.25	0.51845
1167.5	0.51695
1167.75	0.51728
1168	0.51777
1168.25	0.51718
1168.5	0.51844
1168.75	0.51878
1169	0.51863
1169.25	0.51818
1169.5	0.51766
1169.75	0.51682
1170	0.51596
1170.25	0.51645
1170.5	0.51776
1170.75	0.51711
1171	0.51585
1171.25	0.51637
1171.5	0.51563
1171.75	0.51497
1172	0.51375
1172.25	0.51385
1172.5	0.51325
1172.75	0.51273
1173	0.51274
1173.25	0.51203
1173.5	0.51179
1173.75	0.51061
1174	0.5108
1174.25	0.51098
1174.5	0.51115
1174.75	0.51159
1175	0.51271
1175.25	0.51279
1175.5	0.51263
1175.75	0.51202
1176	0.51269
1176.25	0.51349
1176.5	0.51369
1176.75	0.51231
1177	0.51289
1177.25	0.51278
1177.5	0.51263
1177.75	0.51331
1178	0.51216
1178.25	0.51226
1178.5	0.51153
1178.75	0.51114
1179	0.51179
1179.25	0.51025
1179.5	0.51037
1179.75	0.50835
1180	0.50787
1180.25	0.50825
1180.5	0.50793
1180.75	0.50898
1181	0.50925
1181.25	0.50917
1181.5	0.50877
1181.75	0.50895
1182	0.50798
1182.25	0.50792
1182.5	0.50643
1182.75	0.50606
1183	0.50533
1183.25	0.50548
1183.5	0.50492
1183.75	0.50523
1184	0.50458
1184.25	0.50407
1184.5	0.50347
1184.75	0.50274
1185	0.5023
1185.25	0.50201
1185.5	0.50177
1185.75	0.50155
1186	0.50079
1186.25	0.5001
1186.5	0.49914
1186.75	0.49863
1187	0.49852
1187.25	0.49835
1187.5	0.49781
1187.75	0.4995
1188	0.50028
1188.25	0.50094
1188.5	0.49966
1188.75	0.50049
1189	0.49987
1189.25	0.50089
1189.5	0.5003
1189.75	0.50105
1190	0.50073
1190.25	0.50073
1190.5	0.5008
1190.75	0.50074
1191	0.50066
1191.25	0.50067
1191.5	0.50072
1191.75	0.49965
1192	0.49933
1192.25	0.49938
1192.5	0.49812
1192.75	0.49812
1193	0.49725
1193.25	0.49749
1193.5	0.49736
1193.75	0.49731
1194	0.49696
1194.25	0.49678
1194.5	0.4961
1194.75	0.49598
1195	0.49571
1195.25	0.49558
1195.5	0.49636
1195.75	0.49637
1196	0.4954
1196.25	0.49549
1196.5	0.49633
1196.75	0.49606
1197	0.49608
1197.25	0.49665
1197.5	0.49649
1197.75	0.49643
1198	0.49601
1198.25	0.49642
1198.5	0.49643
1198.75	0.49617
1199	0.49579
1199.25	0.49536
1199.5	0.49545
1199.75	0.49494
1200	0.49345
1200.25	0.49291
1200.5	0.49224
1200.75	0.491
1201	0.49005
1201.25	0.49035
1201.5	0.49008
1201.75	0.48925
1202	0.48946
1202.25	0.48992
1202.5	0.48897
1202.75	0.48987
1203	0.49044
1203.25	0.49045
1203.5	0.49068
1203.75	0.49029
1204	0.49106
1204.25	0.49108
1204.5	0.49101
1204.75	0.49121
1205	0.49101
1205.25	0.49082
1205.5	0.4908
1205.75	0.49005
1206	0.48973
1206.25	0.48982
1206.5	0.48982
1206.75	0.49004
1207	0.49007
1207.25	0.49061
1207.5	0.49138
1207.75	0.49191
1208	0.49159
1208.25	0.49318
1208.5	0.49416
1208.75	0.49508
1209	0.49568
1209.25	0.49595
1209.5	0.49668
1209.75	0.49624
1210	0.49596
1210.25	0.49673
1210.5	0.4956
1210.75	0.49539
1211	0.49544
1211.25	0.49541
1211.5	0.49586
1211.75	0.49609
1212	0.49624
1212.25	0.49671
1212.5	0.49752
1212.75	0.49729
1213	0.49757
1213.25	0.49807
1213.5	0.4986
1213.75	0.49913
1214	0.49929
1214.25	0.50024
1214.5	0.50047
1214.75	0.5017
1215	0.50224
1215.25	0.50285
1215.5	0.503
1215.75	0.50205
1216	0.50313
1216.25	0.50237
1216.5	0.501
1216.75	0.50192
1217	0.50144
1217.25	0.50216
1217.5	0.50304
1217.75	0.50224
1218	0.50296
1218.25	0.50215
1218.5	0.50168
1218.75	0.50156
1219	0.50141
1219.25	0.50131
1219.5	0.50034
1219.75	0.50029
1220	0.50002
1220.25	0.49998
1220.5	0.50014
1220.75	0.49959
1221	0.49899
1221.25	0.49892
1221.5	0.49919
1221.75	0.49958
1222	0.49932
1222.25	0.49843
1222.5	0.49905
1222.75	0.49991
1223	0.50078
1223.25	0.49948
1223.5	0.5009
1223.75	0.50066
1224	0.50045
1224.25	0.50138
1224.5	0.50183
1224.75	0.50138
1225	0.50225
1225.25	0.50202
1225.5	0.5018
1225.75	0.50269
1226	0.50234
1226.25	0.50449
1226.5	0.50414
1226.75	0.50374
1227	0.50211
1227.25	0.50223
1227.5	0.50115
1227.75	0.50149
1228	0.50131
1228.25	0.5016
1228.5	0.502
1228.75	0.50204
1229	0.50184
1229.25	0.50195
1229.5	0.50204
1229.75	0.50231
1230	0.50236
1230.25	0.50202
1230.5	0.50251
1230.75	0.50207
1231	0.50186
1231.25	0.502
1231.5	0.50174
1231.75	0.50195
1232	0.50168
1232.25	0.5018
1232.5	0.50174
1232.75	0.50158
1233	0.50166
1233.25	0.5013
1233.5	0.50107
1233.75	0.50064
1234	0.50032
1234.25	0.50025
1234.5	0.5
1234.75	0.49962
1235	0.49912
1235.25	0.49907
1235.5	0.49918
1235.75	0.49826
1236	0.49782
1236.25	0.49776
1236.5	0.49748
1236.75	0.49757
1237	0.49769
1237.25	0.49811
1237.5	0.49798
1237.75	0.49743
1238	0.49741
1238.25	0.49755
1238.5	0.49777
1238.75	0.49742
1239	0.49751
1239.25	0.49803
1239.5	0.49785
1239.75	0.49757
1240	0.49769
1240.25	0.49767
1240.5	0.49745
1240.75	0.49682
1241	0.49655
1241.25	0.49603
1241.5	0.49623
1241.75	0.49624
1242	0.49596
1242.25	0.49536
1242.5	0.49535
1242.75	0.49562
1243	0.49533
1243.25	0.49521
1243.5	0.49508
1243.75	0.49489
1244	0.49463
1244.25	0.4945
1244.5	0.4942
1244.75	0.49444
1245	0.49452
1245.25	0.49461
1245.5	0.49468
1245.75	0.49447
1246	0.49465
1246.25	0.49405
1246.5	0.494
1246.75	0.49416
1247	0.49355
1247.25	0.49307
1247.5	0.49239
1247.75	0.49186
1248	0.49159
1248.25	0.49164
1248.5	0.49125
1248.75	0.49066
1249	0.49062
1249.25	0.49038
1249.5	0.49059
1249.75	0.49043
1250	0.49074
1250.25	0.49127
1250.5	0.4917
1250.75	0.49194
1251	0.49112
1251.25	0.49066
1251.5	0.49077
1251.75	0.49061
1252	0.49083
1252.25	0.49047
1252.5	0.49024
1252.75	0.48994
1253	0.48935
1253.25	0.48863
1253.5	0.48774
1253.75	0.48695
1254	0.48647
1254.25	0.4859
1254.5	0.48535
1254.75	0.48529
1255	0.48527
1255.25	0.48528
1255.5	0.48522
1255.75	0.48496
1256	0.48504
1256.25	0.49066
1256.5	0.48822
1256.75	0.48856
1257	0.48927
1257.25	0.48923
1257.5	0.48871