0	4.04456
0.25	4.01771
0.5	4.01653
0.75	4.01565
1	4.02793
1.25	4.04341
1.5	4.05829
1.75	4.0719
2	4.0859
2.25	4.09338
2.5	4.09797
2.75	4.10424
3	4.1082
3.25	4.104
3.5	4.09851
3.75	4.0939
4	4.08352
4.25	4.07608
4.5	4.07299
4.75	4.06219
5	4.05258
5.25	4.04227
5.5	4.02962
5.75	4.01811
6	4.00629
6.25	3.9992
6.5	3.97903
6.75	3.95691
7	3.94708
7.25	3.93919
7.5	3.92942
7.75	3.92022
8	3.91295
8.25	3.89804
8.5	3.89141
8.75	3.88182
9	3.86871
9.25	3.86059
9.5	3.85838
9.75	3.85323
10	3.85296
10.25	3.84609
10.5	3.83978
10.75	3.83455
11	3.81954
11.25	3.81401
11.5	3.80723
11.75	3.79842
12	3.79388
12.25	3.79173
12.5	3.78781
12.75	3.78608
13	3.78243
13.25	3.78039
13.5	3.77598
13.75	3.77727
14	3.77569
14.25	3.77024
14.5	3.77141
14.75	3.77025
15	3.77267
15.25	3.76651
15.5	3.76195
15.75	3.75611
16	3.75254
16.25	3.75464
16.5	3.75751
16.75	3.76129
17	3.76399
17.25	3.76164
17.5	3.75744
17.75	3.76228
18	3.76104
18.25	3.76348
18.5	3.76392
18.75	3.76629
19	3.77093
19.25	3.76811
19.5	3.7717
19.75	3.76699
20	3.77047
20.25	3.76987
20.5	3.76889
20.75	3.76937
21	3.77079
21.25	3.77397
21.5	3.77473
21.75	3.77427
22	3.78047
22.25	3.78358
22.5	3.78322
22.75	3.78176
23	3.78089
23.25	3.78514
23.5	3.78164
23.75	3.78044
24	3.77775
24.25	3.78361
24.5	3.78888
24.75	3.78679
25	3.78804
25.25	3.78397
25.5	3.76983
25.75	3.77354
26	3.77384
26.25	3.77328
26.5	3.7794
26.75	3.77939
27	3.77165
27.25	3.7645
27.5	3.758
27.75	3.75947
28	3.75235
28.25	3.72884
28.5	3.73516
28.75	3.73356
29	3.72759
29.25	3.72644
29.5	3.72415
29.75	3.72271
30	3.71045
30.25	3.70666
30.5	3.69657
30.75	3.69336
31	3.68987
31.25	3.68837
31.5	3.68206
31.75	3.68355
32	3.67715
32.25	3.67569
32.5	3.66644
32.75	3.64938
33	3.64114
33.25	3.63435
33.5	3.6299
33.75	3.62706
34	3.62805
34.25	3.618
34.5	3.61294
34.75	3.61352
35	3.61473
35.25	3.6092
35.5	3.60538
35.75	3.60173
36	3.598
36.25	3.586
36.5	3.58553
36.75	3.58171
37	3.57752
37.25	3.57179
37.5	3.56333
37.75	3.56105
38	3.55663
38.25	3.54266
38.5	3.53907
38.75	3.53611
39	3.52894
39.25	3.52453
39.5	3.52155
39.75	3.5165
40	3.51228
40.25	3.51117
40.5	3.50839
40.75	3.50343
41	3.49745
41.25	3.49372
41.5	3.48605
41.75	3.47693
42	3.46697
42.25	3.45771
42.5	3.45415
42.75	3.453
43	3.45407
43.25	3.45326
43.5	3.45361
43.75	3.449
44	3.44604
44.25	3.44613
44.5	3.44559
44.75	3.44119
45	3.43259
45.25	3.42535
45.5	3.41994
45.75	3.41745
46	3.41256
46.25	3.41296
46.5	3.41103
46.75	3.40023
47	3.39769
47.25	3.38762
47.5	3.38396
47.75	3.37512
48	3.37162
48.25	3.37369
48.5	3.36403
48.75	3.36454
49	3.36267
49.25	3.36065
49.5	3.35728
49.75	3.34277
50	3.33879
50.25	3.33794
50.5	3.3316
50.75	3.3205
51	3.31683
51.25	3.30094
51.5	3.29661
51.75	3.2918
52	3.27747
52.25	3.26616
52.5	3.25218
52.75	3.24616
53	3.23936
53.25	3.2342
53.5	3.22325
53.75	3.21696
54	3.21099
54.25	3.20491
54.5	3.19603
54.75	3.17747
55	3.16716
55.25	3.15646
55.5	3.14831
55.75	3.14841
56	3.14139
56.25	3.13759
56.5	3.1337
56.75	3.12588
57	3.11916
57.25	3.10695
57.5	3.10191
57.75	3.09475
58	3.08601
58.25	3.07488
58.5	3.06624
58.75	3.05794
59	3.05766
59.25	3.052
59.5	3.05205
59.75	3.04635
60	3.03823
60.25	3.02909
60.5	3.02834
60.75	3.02142
61	3.01114
61.25	3.01405
61.5	3.02578
61.75	3.02214
62	3.02041
62.25	3.0121
62.5	2.98422
62.75	2.94065
63	2.90553
63.25	2.88311
63.5	2.85295
63.75	2.83624
64	2.81704
64.25	2.80029
64.5	2.78996
64.75	2.78632
65	2.77075
65.25	2.77029
65.5	2.76983
65.75	2.75931
66	2.73537
66.25	2.73929
66.5	2.7417
66.75	2.74882
67	2.74929
67.25	2.74609
67.5	2.74711
67.75	2.74072
68	2.73999
68.25	2.73814
68.5	2.73205
68.75	2.7358
69	2.73843
69.25	2.73921
69.5	2.73422
69.75	2.72716
70	2.72657
70.25	2.74407
70.5	2.77556
70.75	2.80785
71	2.83515
71.25	2.86625
71.5	2.89003
71.75	2.9175
72	2.94644
72.25	2.9872
72.5	3.02062
72.75	3.06198
73	3.12149
73.25	3.17428
73.5	3.24534
73.75	3.32682
74	3.41875
74.25	3.52319
74.5	3.62923
74.75	3.74347
75	3.85404
75.25	3.95206
75.5	4.05187
75.75	4.16038
76	4.28145
76.25	4.25422
76.5	3.93955
76.75	3.59534
77	3.32126
77.25	3.12305
77.5	2.97787
77.75	2.88359
78	2.81731
78.25	2.78943
78.5	2.8403
78.75	3.05754
79	3.48617
79.25	3.97867
79.5	4.19111
79.75	4.04134
80	3.69977
80.25	3.34949
80.5	3.08549
80.75	2.93563
81	2.847
81.25	2.788
81.5	2.7351
81.75	2.67967
82	2.63644
82.25	2.60278
82.5	2.57718
82.75	2.56218
83	2.55044
83.25	2.53906
83.5	2.537
83.75	2.53336
84	2.53185
84.25	2.52828
84.5	2.52947
84.75	2.535
85	2.55425
85.25	2.57455
85.5	2.58737
85.75	2.60493
86	2.60942
86.25	2.60056
86.5	2.58981
86.75	2.57363
87	2.55299
87.25	2.53385
87.5	2.52746
87.75	2.52489
88	2.53871
88.25	2.56503
88.5	2.62559
88.75	2.70498
89	2.78074
89.25	2.83324
89.5	2.87638
89.75	2.90709
90	2.90971
90.25	2.87245
90.5	2.81934
90.75	2.79012
91	2.81812
91.25	2.87864
91.5	2.98429
91.75	3.10379
92	3.19721
92.25	3.24265
92.5	3.24002
92.75	3.17848
93	3.06869
93.25	2.94483
93.5	2.81911
93.75	2.70728
94	2.6215
94.25	2.56804
94.5	2.5484
94.75	2.55586
95	2.58027
95.25	2.60306
95.5	2.61902
95.75	2.61048
96	2.59181
96.25	2.55112
96.5	2.51205
96.75	2.47546
97	2.44233
97.25	2.41626
97.5	2.40113
97.75	2.38438
98	2.3755
98.25	2.36973
98.5	2.36373
98.75	2.36067
99	2.35369
99.25	2.36055
99.5	2.36522
99.75	2.37521
100	2.38208
100.25	2.38605
100.5	2.39376
100.75	2.39997
101	2.4151
101.25	2.41589
101.5	2.40919
101.75	2.40538
102	2.39996
102.25	2.38392
102.5	2.37385
102.75	2.37259
103	2.36898
103.25	2.36985
103.5	2.37397
103.75	2.37746
104	2.36873
104.25	2.37396
104.5	2.38015
104.75	2.36153
105	2.36677
105.25	2.35302
105.5	2.35424
105.75	2.36102
106	2.37058
106.25	2.36301
106.5	2.35465
106.75	2.35331
107	2.35049
107.25	2.33888
107.5	2.33802
107.75	2.33289
108	2.33897
108.25	2.34946
108.5	2.36972
108.75	2.37936
109	2.3896
109.25	2.38637
109.5	2.36915
109.75	2.35721
110	2.3339
110.25	2.31326
110.5	2.29887
110.75	2.29656
111	2.28953
111.25	2.28076
111.5	2.27216
111.75	2.27805
112	2.28115
112.25	2.27608
112.5	2.26779
112.75	2.26284
113	2.25574
113.25	2.25081
113.5	2.24797
113.75	2.24376
114	2.23892
114.25	2.23316
114.5	2.23198
114.75	2.23337
115	2.23545
115.25	2.23767
115.5	2.24237
115.75	2.24447
116	2.24173
116.25	2.24443
116.5	2.23468
116.75	2.22694
117	2.22205
117.25	2.21554
117.5	2.21149
117.75	2.20615
118	2.20209
118.25	2.1984
118.5	2.1979
118.75	2.20011
119	2.20418
119.25	2.19879
119.5	2.20351
119.75	2.20896
120	2.20779
120.25	2.20649
120.5	2.21273
120.75	2.21551
121	2.22039
121.25	2.23107
121.5	2.24504
121.75	2.25934
122	2.27931
122.25	2.30007
122.5	2.31997
122.75	2.34069
123	2.35646
123.25	2.38056
123.5	2.40042
123.75	2.42571
124	2.45273
124.25	2.46869
124.5	2.47664
124.75	2.47517
125	2.45628
125.25	2.42751
125.5	2.38678
125.75	2.34116
126	2.29811
126.25	2.24965
126.5	2.21452
126.75	2.19345
127	2.17807
127.25	2.18101
127.5	2.19214
127.75	2.21928
128	2.25794
128.25	2.30266
128.5	2.34492
128.75	2.38872
129	2.40878
129.25	2.41541
129.5	2.40187
129.75	2.37532
130	2.33793
130.25	2.28639
130.5	2.24105
130.75	2.19922
131	2.1658
131.25	2.13555
131.5	2.11544
131.75	2.0968
132	2.08821
132.25	2.08294
132.5	2.08078
132.75	2.07833
133	2.07299
133.25	2.07174
133.5	2.06468
133.75	2.06611
134	2.04605
134.25	2.03805
134.5	2.0326
134.75	2.02699
135	2.021
135.25	2.01374
135.5	2.00862
135.75	2.00537
136	2.00369
136.25	2.00145
136.5	1.99937
136.75	1.99134
137	1.9847
137.25	1.98377
137.5	1.98034
137.75	1.97721
138	1.98021
138.25	1.9715
138.5	1.96849
138.75	1.96685
139	1.96722
139.25	1.96406
139.5	1.96179
139.75	1.95906
140	1.95635
140.25	1.95412
140.5	1.95192
140.75	1.94575
141	1.94178
141.25	1.93976
141.5	1.93949
141.75	1.9372
142	1.93629
142.25	1.93394
142.5	1.9314
142.75	1.92991
143	1.93355
143.25	1.93192
143.5	1.93058
143.75	1.92928
144	1.93182
144.25	1.93055
144.5	1.92786
144.75	1.92286
145	1.92351
145.25	1.92468
145.5	1.92555
145.75	1.92303
146	1.92453
146.25	1.92483
146.5	1.9248
146.75	1.92744
147	1.93436
147.25	1.94204
147.5	1.95268
147.75	1.96354
148	1.9732
148.25	1.98659
148.5	1.99973
148.75	2.01121
149	2.01564
149.25	2.01952
149.5	2.01804
149.75	2.01244
150	2.00053
150.25	1.9891
150.5	1.97502
150.75	1.96049
151	1.94707
151.25	1.93289
151.5	1.92161
151.75	1.90967
152	1.89914
152.25	1.89081
152.5	1.88451
152.75	1.8771
153	1.87189
153.25	1.86594
153.5	1.86369
153.75	1.86213
154	1.8574
154.25	1.85588
154.5	1.85431
154.75	1.85316
155	1.85052
155.25	1.84959
155.5	1.84734
155.75	1.84752
156	1.84657
156.25	1.84641
156.5	1.84464
156.75	1.84069
157	1.83633
157.25	1.83367
157.5	1.83244
157.75	1.83606
158	1.83847
158.25	1.8357
158.5	1.83882
158.75	1.83811
159	1.83289
159.25	1.82653
159.5	1.82552
159.75	1.82636
160	1.82967
160.25	1.8307
160.5	1.82585
160.75	1.8273
161	1.82516
161.25	1.82291
161.5	1.81535
161.75	1.81169
162	1.80756
162.25	1.80323
162.5	1.80552
162.75	1.80283
163	1.80178
163.25	1.79524
163.5	1.79079
163.75	1.79103
164	1.78393
164.25	1.79041
164.5	1.78464
164.75	1.77837
165	1.7725
165.25	1.77508
165.5	1.77566
165.75	1.77296
166	1.76929
166.25	1.7694
166.5	1.77151
166.75	1.77097
167	1.77364
167.25	1.77803
167.5	1.78582
167.75	1.7967
168	1.81006
168.25	1.82726
168.5	1.84611
168.75	1.86869
169	1.89232
169.25	1.91729
169.5	1.9415
169.75	1.95986
170	1.96441
170.25	1.9664
170.5	1.95705
170.75	1.94266
171	1.92561
171.25	1.90087
171.5	1.87638
171.75	1.84354
172	1.81367
172.25	1.80406
172.5	1.78406
172.75	1.76688
173	1.75011
173.25	1.75653
173.5	1.74369
173.75	1.73472
174	1.72823
174.25	1.72789
174.5	1.72119
174.75	1.72451
175	1.72718
175.25	1.72469
175.5	1.72465
175.75	1.72598
176	1.72917
176.25	1.73376
176.5	1.73781
176.75	1.75605
177	1.75208
177.25	1.76708
177.5	1.76175
177.75	1.75742
178	1.76481
178.25	1.75915
178.5	1.75451
178.75	1.73612
179	1.73652
179.25	1.74516
179.5	1.75239
179.75	1.75246
180	1.76376
180.25	1.76997
180.5	1.77506
180.75	1.80183
181	1.83068
181.25	1.84789
181.5	1.86296
181.75	1.86955
182	1.88437
182.25	1.91122
182.5	1.94079
182.75	1.98511
183	2.02458
183.25	2.06511
183.5	2.09122
183.75	2.10024
184	2.08908
184.25	2.05778
184.5	2.01995
184.75	1.98747
185	1.9706
185.25	1.96065
185.5	1.95264
185.75	1.94074
186	1.92564
186.25	1.89923
186.5	1.86824
186.75	1.83325
187	1.80127
187.25	1.78031
187.5	1.75717
187.75	1.74317
188	1.73906
188.25	1.72363
188.5	1.70863
188.75	1.69492
189	1.69298
189.25	1.68342
189.5	1.67922
189.75	1.66186
190	1.66588
190.25	1.66831
190.5	1.66796
190.75	1.65645
191	1.65654
191.25	1.66552
191.5	1.65649
191.75	1.64216
192	1.63471
192.25	1.63074
192.5	1.64669
192.75	1.64131
193	1.64418
193.25	1.65276
193.5	1.64602
193.75	1.65077
194	1.66541
194.25	1.67066
194.5	1.6888
194.75	1.69828
195	1.71498
195.25	1.74539
195.5	1.80773
195.75	1.92114
196	2.10908
196.25	2.36081
196.5	2.70127
196.75	3.09979
197	3.48696
197.25	3.76618
197.5	3.86831
197.75	3.77932
198	3.51343
198.25	3.17242
198.5	2.8019
198.75	2.49071
199	2.22336
199.25	2.02717
199.5	1.89924
199.75	1.806
200	1.74298
200.25	1.69701
200.5	1.67626
200.75	1.65554
201	1.64677
201.25	1.64082
201.5	1.63605
201.75	1.62936
202	1.62445
202.25	1.61933
202.5	1.61843
202.75	1.61479
203	1.6132
203.25	1.61697
203.5	1.61775
203.75	1.61243
204	1.61354
204.25	1.61202
204.5	1.6125
204.75	1.61388
205	1.61991
205.25	1.62895
205.5	1.63684
205.75	1.65154
206	1.67042
206.25	1.68923
206.5	1.70883
206.75	1.7272
207	1.74136
207.25	1.7503
207.5	1.75836
207.75	1.77326
208	1.79709
208.25	1.83272
208.5	1.88556
208.75	1.95705
209	2.04634
209.25	2.14441
209.5	2.24838
209.75	2.34165
210	2.42106
210.25	2.47862
210.5	2.50557
210.75	2.4997
211	2.46451
211.25	2.40734
211.5	2.34398
211.75	2.26447
212	2.18236
212.25	2.1109
212.5	2.03727
212.75	1.9755
213	1.92541
213.25	1.8847
213.5	1.8591
213.75	1.84413
214	1.84535
214.25	1.86173
214.5	1.89167
214.75	1.93885
215	2.01124
215.25	2.09733
215.5	2.19174
215.75	2.29815
216	2.41168
216.25	2.5232
216.5	2.62592
216.75	2.70985
217	2.77024
217.25	2.79981
217.5	2.79863
217.75	2.75923
218	2.6979
218.25	2.61595
218.5	2.51295
218.75	2.40163
219	2.28289
219.25	2.17943
219.5	2.07971
219.75	1.99119
220	1.91661
220.25	1.85258
220.5	1.80189
220.75	1.76527
221	1.73681
221.25	1.71512
221.5	1.70046
221.75	1.69102
222	1.68596
222.25	1.68311
222.5	1.67991
222.75	1.6734
223	1.67021
223.25	1.66714
223.5	1.66714
223.75	1.66648
224	1.67138
224.25	1.68662
224.5	1.70332
224.75	1.73086
225	1.77188
225.25	1.82636
225.5	1.89038
225.75	1.96879
226	2.04883
226.25	2.13551
226.5	2.22476
226.75	2.30423
227	2.36604
227.25	2.40955
227.5	2.42825
227.75	2.43204
228	2.40759
228.25	2.36038
228.5	2.29568
228.75	2.22526
229	2.13996
229.25	2.05857
229.5	1.98515
229.75	1.91332
230	1.8541
230.25	1.79907
230.5	1.75453
230.75	1.71729
231	1.68605
231.25	1.66476
231.5	1.65112
231.75	1.63654
232	1.62839
232.25	1.62262
232.5	1.61573
232.75	1.61067
233	1.61241
233.25	1.61535
233.5	1.61693
233.75	1.61906
234	1.62409
234.25	1.62415
234.5	1.63113
234.75	1.64134
235	1.6537
235.25	1.67488
235.5	1.6963
235.75	1.71987
236	1.74199
236.25	1.76515
236.5	1.79168
236.75	1.8197
237	1.83967
237.25	1.85779
237.5	1.87166
237.75	1.88222
238	1.88615
238.25	1.8874
238.5	1.88685
238.75	1.88588
239	1.8772
239.25	1.86767
239.5	1.85393
239.75	1.83895
240	1.82337
240.25	1.79972
240.5	1.77483
240.75	1.7494
241	1.72622
241.25	1.70213
241.5	1.67858
241.75	1.65792
242	1.63861
242.25	1.62136
242.5	1.60583
242.75	1.594
243	1.58306
243.25	1.57352
243.5	1.56789
243.75	1.56108
244	1.55723
244.25	1.55564
244.5	1.55272
244.75	1.54778
245	1.54219
245.25	1.53861
245.5	1.53652
245.75	1.53649
246	1.53535
246.25	1.53322
246.5	1.53284
246.75	1.53349
247	1.5353
247.25	1.53933
247.5	1.54344
247.75	1.55162
248	1.55845
248.25	1.56901
248.5	1.58224
248.75	1.59924
249	1.61768
249.25	1.64121
249.5	1.66105
249.75	1.68399
250	1.70612
250.25	1.72554
250.5	1.74138
250.75	1.75477
251	1.76323
251.25	1.77062
251.5	1.77355
251.75	1.76943
252	1.76027
252.25	1.75166
252.5	1.7421
252.75	1.72916
253	1.71346
253.25	1.6983
253.5	1.6798
253.75	1.65979
254	1.64346
254.25	1.62415
254.5	1.60832
254.75	1.59394
255	1.58252
255.25	1.57455
255.5	1.57451
255.75	1.57439
256	1.5741
256.25	1.57837
256.5	1.58016
256.75	1.58161
257	1.57931
257.25	1.5765
257.5	1.57154
257.75	1.56524
258	1.55671
258.25	1.54722
258.5	1.53858
258.75	1.52953
259	1.5261
259.25	1.52354
259.5	1.52424
259.75	1.53294
260	1.54617
260.25	1.56671
260.5	1.60008
260.75	1.6438
261	1.69604
261.25	1.75399
261.5	1.81145
261.75	1.8674
262	1.90976
262.25	1.93518
262.5	1.93881
262.75	1.92011
263	1.88054
263.25	1.82903
263.5	1.77232
263.75	1.71675
264	1.6662
264.25	1.62405
264.5	1.59152
264.75	1.56936
265	1.55113
265.25	1.54113
265.5	1.5382
265.75	1.53844
266	1.54795
266.25	1.57429
266.5	1.62529
266.75	1.71338
267	1.85246
267.25	2.05863
267.5	2.38938
267.75	2.79364
268	3.26234
268.25	3.71436
268.5	4.11773
268.75	4.36538
269	4.38625
269.25	4.20456
269.5	3.86607
269.75	3.44611
270	2.99849
270.25	2.60486
270.5	2.2758
270.75	2.0311
271	1.84429
271.25	1.71394
271.5	1.63175
271.75	1.58944
272	1.56195
272.25	1.54819
272.5	1.5456
272.75	1.54719
273	1.55384
273.25	1.56414
273.5	1.57081
273.75	1.57871
274	1.57817
274.25	1.57323
274.5	1.56269
274.75	1.5535
275	1.54733
275.25	1.53594
275.5	1.52699
275.75	1.51615
276	1.50662
276.25	1.50218
276.5	1.49344
276.75	1.48695
277	1.4811
277.25	1.47467
277.5	1.46576
277.75	1.45622
278	1.45302
278.25	1.44745
278.5	1.43717
278.75	1.42774
279	1.42336
279.25	1.4167
279.5	1.41335
279.75	1.40803
280	1.41004
280.25	1.40928
280.5	1.40448
280.75	1.40331
281	1.40344
281.25	1.40808
281.5	1.41047
281.75	1.42086
282	1.4329
282.25	1.45533
282.5	1.48337
282.75	1.52746
283	1.5777
283.25	1.64107
283.5	1.71317
283.75	1.78676
284	1.858
284.25	1.91383
284.5	1.95232
284.75	1.97055
285	1.97265
285.25	1.96511
285.5	1.94499
285.75	1.93709
286	1.93684
286.25	1.95742
286.5	2.00063
286.75	2.05759
287	2.12251
287.25	2.17868
287.5	2.2227
287.75	2.24227
288	2.23337
288.25	2.19148
288.5	2.12849
288.75	2.04502
289	1.96146
289.25	1.88207
289.5	1.80695
289.75	1.73901
290	1.68368
290.25	1.63245
290.5	1.58189
290.75	1.54326
291	1.51301
291.25	1.48887
291.5	1.46611
291.75	1.44793
292	1.4334
292.25	1.42451
292.5	1.41535
292.75	1.40824
293	1.40313
293.25	1.40181
293.5	1.3981
293.75	1.39259
294	1.39208
294.25	1.39083
294.5	1.39401
294.75	1.39297
295	1.3902
295.25	1.39262
295.5	1.38487
295.75	1.38288
296	1.38242
296.25	1.37858
296.5	1.38014
296.75	1.37829
297	1.37959
297.25	1.37504
297.5	1.37049
297.75	1.36833
298	1.36333
298.25	1.3596
298.5	1.35524
298.75	1.35111
299	1.34976
299.25	1.34856
299.5	1.35045
299.75	1.35491
300	1.35772
300.25	1.36352
300.5	1.37268
300.75	1.37848
301	1.39228
301.25	1.40104
301.5	1.40784
301.75	1.41861
302	1.42308
302.25	1.42329
302.5	1.4233
302.75	1.42348
303	1.41803
303.25	1.41436
303.5	1.40676
303.75	1.39974
304	1.39229
304.25	1.38504
304.5	1.37698
304.75	1.36961
305	1.36724
305.25	1.36249
305.5	1.35739
305.75	1.35066
306	1.3571
306.25	1.34983
306.5	1.35749
306.75	1.34536
307	1.34297
307.25	1.34639
307.5	1.34348
307.75	1.34299
308	1.33625
308.25	1.33362
308.5	1.33597
308.75	1.33536
309	1.3304
309.25	1.33106
309.5	1.32859
309.75	1.32331
310	1.31844
310.25	1.30754
310.5	1.30097
310.75	1.29859
311	1.30757
311.25	1.31031
311.5	1.31501
311.75	1.32376
312	1.33361
312.25	1.34319
312.5	1.3547
312.75	1.36935
313	1.38644
313.25	1.38446
313.5	1.38112
313.75	1.38055
314	1.38694
314.25	1.37664
314.5	1.37173
314.75	1.36309
315	1.35832
315.25	1.34551
315.5	1.33892
315.75	1.33212
316	1.32997
316.25	1.3303
316.5	1.32324
316.75	1.32005
317	1.32654
317.25	1.32658
317.5	1.32812
317.75	1.33243
318	1.34164
318.25	1.36527
318.5	1.38835
318.75	1.41494
319	1.44584
319.25	1.48476
319.5	1.52303
319.75	1.55887
320	1.5918
320.25	1.61792
320.5	1.63617
320.75	1.64689
321	1.65572
321.25	1.65137
321.5	1.64957
321.75	1.64245
322	1.62989
322.25	1.61315
322.5	1.59468
322.75	1.57702
323	1.55576
323.25	1.54136
323.5	1.52392
323.75	1.51235
324	1.50507
324.25	1.50238
324.5	1.48688
324.75	1.48763
325	1.49015
325.25	1.50424
325.5	1.51396
325.75	1.53245
326	1.55506
326.25	1.58701
326.5	1.63771
326.75	1.70011
327	1.76348
327.25	1.8229
327.5	1.88921
327.75	1.94348
328	1.98534
328.25	2.00989
328.5	2.01627
328.75	1.99537
329	1.96096
329.25	1.90904
329.5	1.8481
329.75	1.78053
330	1.72254
330.25	1.66371
330.5	1.61543
330.75	1.57489
331	1.55004
331.25	1.52967
331.5	1.52411
331.75	1.52648
332	1.53863
332.25	1.5669
332.5	1.60011
332.75	1.63545
333	1.68372
333.25	1.73786
333.5	1.78976
333.75	1.84279
334	1.89194
334.25	1.92799
334.5	1.95934
334.75	1.9778
335	1.98366
335.25	1.9806
335.5	1.97159
335.75	1.95448
336	1.92712
336.25	1.90233
336.5	1.87225
336.75	1.84161
337	1.81158
337.25	1.77835
337.5	1.74676
337.75	1.71363
338	1.67977
338.25	1.65381
338.5	1.62356
338.75	1.5984
339	1.57713
339.25	1.55557
339.5	1.54164
339.75	1.53668
340	1.52901
340.25	1.52883
340.5	1.53288
340.75	1.54445
341	1.56277
341.25	1.58081
341.5	1.60717
341.75	1.63592
342	1.66444
342.25	1.70184
342.5	1.73375
342.75	1.74988
343	1.75676
343.25	1.7562
343.5	1.75011
343.75	1.73255
344	1.69871
344.25	1.67086
344.5	1.62691
344.75	1.58567
345	1.54373
345.25	1.50847
345.5	1.4693
345.75	1.43649
346	1.41114
346.25	1.39425
346.5	1.3849
346.75	1.37809
347	1.37375
347.25	1.37299
347.5	1.37185
347.75	1.37491
348	1.37906
348.25	1.38084
348.5	1.38099
348.75	1.3813
349	1.382
349.25	1.3845
349.5	1.38555
349.75	1.39005
350	1.40401
350.25	1.42153
350.5	1.45295
350.75	1.49287
351	1.55211
351.25	1.62447
351.5	1.72435
351.75	1.84502
352	1.97893
352.25	2.13391
352.5	2.2899
352.75	2.45655
353	2.60817
353.25	2.73598
353.5	2.83276
353.75	2.88765
354	2.89501
354.25	2.85904
354.5	2.78324
354.75	2.67413
355	2.55197
355.25	2.42727
355.5	2.31925
355.75	2.23272
356	2.17083
356.25	2.13708
356.5	2.13525
356.75	2.15164
357	2.18942
357.25	2.23444
357.5	2.27919
357.75	2.31804
358	2.34289
358.25	2.34924
358.5	2.3266
358.75	2.28465
359	2.22694
359.25	2.14637
359.5	2.05164
359.75	1.95027
360	1.85306
360.25	1.76276
360.5	1.67449
360.75	1.59634
361	1.53254
361.25	1.4819
361.5	1.44115
361.75	1.41112
362	1.3913
362.25	1.38163
362.5	1.38267
362.75	1.39591
363	1.41772
363.25	1.44843
363.5	1.49129
363.75	1.54615
364	1.61408
364.25	1.69264
364.5	1.76608
364.75	1.85809
365	1.95168
365.25	2.04551
365.5	2.13945
365.75	2.22251
366	2.2864
366.25	2.35801
366.5	2.40384
366.75	2.4391
367	2.45317
367.25	2.44613
367.5	2.42302
367.75	2.38788
368	2.33969
368.25	2.28344
368.5	2.22419
368.75	2.16582
369	2.1068
369.25	2.0536
369.5	1.99991
369.75	1.95077
370	1.90829
370.25	1.87265
370.5	1.84558
370.75	1.82518
371	1.8166
371.25	1.80821
371.5	1.81479
371.75	1.82807
372	1.84293
372.25	1.86592
372.5	1.89474
372.75	1.92955
373	1.96007
373.25	1.9914
373.5	2.02154
373.75	2.05087
374	2.07492
374.25	2.08808
374.5	2.09371
374.75	2.09029
375	2.08153
375.25	2.05948
375.5	2.03107
375.75	1.99732
376	1.95862
376.25	1.91285
376.5	1.86934
376.75	1.82402
377	1.78324
377.25	1.74472
377.5	1.70324
377.75	1.66586
378	1.63093
378.25	1.5987
378.5	1.56956
378.75	1.54144
379	1.51764
379.25	1.49307
379.5	1.46749
379.75	1.44555
380	1.42061
380.25	1.40046
380.5	1.38276
380.75	1.36245
381	1.34057
381.25	1.32597
381.5	1.30901
381.75	1.29562
382	1.2827
382.25	1.2723
382.5	1.26157
382.75	1.25087
383	1.24384
383.25	1.23609
383.5	1.23368
383.75	1.23008
384	1.22749
384.25	1.22771
384.5	1.2285
384.75	1.22928
385	1.23392
385.25	1.24309
385.5	1.25115
385.75	1.26387
386	1.27565
386.25	1.29175
386.5	1.30888
386.75	1.32837
387	1.34732
387.25	1.37723
387.5	1.40309
387.75	1.42755
388	1.457
388.25	1.48882
388.5	1.52347
388.75	1.55584
389	1.58274
389.25	1.61715
389.5	1.65044
389.75	1.68023
390	1.70693
390.25	1.73186
390.5	1.75245
390.75	1.77013
391	1.78489
391.25	1.79332
391.5	1.79914
391.75	1.80095
392	1.80081
392.25	1.79969
392.5	1.79484
392.75	1.78606
393	1.77583
393.25	1.76486
393.5	1.7524
393.75	1.74225
394	1.73119
394.25	1.71576
394.5	1.70175
394.75	1.68776
395	1.67492
395.25	1.65721
395.5	1.64142
395.75	1.62505
396	1.61213
396.25	1.59969
396.5	1.58629
396.75	1.57324
397	1.55939
397.25	1.54832
397.5	1.5361
397.75	1.52232
398	1.51274
398.25	1.50337
398.5	1.49253
398.75	1.48797
399	1.48422
399.25	1.48252
399.5	1.47893
399.75	1.47698
400	1.47865
400.25	1.48062
400.5	1.48832
400.75	1.49367
401	1.49674
401.25	1.50294
401.5	1.50707
401.75	1.51152
402	1.51841
402.25	1.52558
402.5	1.53319
402.75	1.53861
403	1.54362
403.25	1.5459
403.5	1.54848
403.75	1.54857
404	1.54819
404.25	1.54612
404.5	1.54222
404.75	1.53845
405	1.53693
405.25	1.5281
405.5	1.5241
405.75	1.51782
406	1.51039
406.25	1.50402
406.5	1.49099
406.75	1.48478
407	1.47497
407.25	1.46329
407.5	1.45571
407.75	1.45012
408	1.44254
408.25	1.43151
408.5	1.42641
408.75	1.41888
409	1.41245
409.25	1.39845
409.5	1.39662
409.75	1.39218
410	1.39292
410.25	1.38342
410.5	1.39016
410.75	1.39194
411	1.39445
411.25	1.39142
411.5	1.39654
411.75	1.39856
412	1.39935
412.25	1.39848
412.5	1.40428
412.75	1.40621
413	1.41307
413.25	1.41779
413.5	1.42389
413.75	1.43157
414	1.44033
414.25	1.44686
414.5	1.4486
414.75	1.45332
415	1.45771
415.25	1.46004
415.5	1.46324
415.75	1.46395
416	1.46523
416.25	1.46636
416.5	1.4667
416.75	1.4676
417	1.46616
417.25	1.46055
417.5	1.4543
417.75	1.44577
418	1.43749
418.25	1.42858
418.5	1.4174
418.75	1.40928
419	1.39569
419.25	1.38047
419.5	1.36153
419.75	1.34923
420	1.34332
420.25	1.32907
420.5	1.31552
420.75	1.30595
421	1.29386
421.25	1.2849
421.5	1.27774
421.75	1.26917
422	1.26301
422.25	1.25577
422.5	1.25159
422.75	1.24881
423	1.24171
423.25	1.23977
423.5	1.23578
423.75	1.23332
424	1.23029
424.25	1.23003
424.5	1.23066
424.75	1.23042
425	1.22849
425.25	1.22261
425.5	1.21996
425.75	1.21813
426	1.21587
426.25	1.21324
426.5	1.21048
426.75	1.20529
427	1.2025
427.25	1.19985
427.5	1.19603
427.75	1.19269
428	1.18469
428.25	1.182
428.5	1.17794
428.75	1.17419
429	1.17246
429.25	1.16871
429.5	1.16719
429.75	1.16129
430	1.15833
430.25	1.1523
430.5	1.15055
430.75	1.14934
431	1.14372
431.25	1.14147
431.5	1.13891
431.75	1.13512
432	1.13164
432.25	1.13048
432.5	1.12555
432.75	1.12529
433	1.12212
433.25	1.12027
433.5	1.11976
433.75	1.11824
434	1.11411
434.25	1.11001
434.5	1.11237
434.75	1.11071
435	1.11319
435.25	1.11064
435.5	1.1081
435.75	1.10708
436	1.10686
436.25	1.10473
436.5	1.10469
436.75	1.10189
437	1.09957
437.25	1.10182
437.5	1.10471
437.75	1.10266
438	1.1016
438.25	1.10204
438.5	1.10023
438.75	1.10179
439	1.09981
439.25	1.10209
439.5	1.1021
439.75	1.10469
440	1.10861
440.25	1.11075
440.5	1.11211
440.75	1.11519
441	1.11467
441.25	1.11599
441.5	1.11864
441.75	1.12152
442	1.12442
442.25	1.12842
442.5	1.13153
442.75	1.13351
443	1.13714
443.25	1.1395
443.5	1.14317
443.75	1.14793
444	1.15085
444.25	1.15418
444.5	1.15683
444.75	1.15688
445	1.15871
445.25	1.16091
445.5	1.16439
445.75	1.16508
446	1.16707
446.25	1.16791
446.5	1.16595
446.75	1.16611
447	1.1706
447.25	1.16763
447.5	1.16921
447.75	1.168
448	1.1666
448.25	1.16573
448.5	1.16505
448.75	1.16321
449	1.16352
449.25	1.16309
449.5	1.16206
449.75	1.1607
450	1.15874
450.25	1.15663
450.5	1.15501
450.75	1.1542
451	1.15427
451.25	1.15274
451.5	1.15197
451.75	1.14988
452	1.14918
452.25	1.14683
452.5	1.14593
452.75	1.14984
453	1.14814
453.25	1.14947
453.5	1.15031
453.75	1.14748
454	1.14781
454.25	1.14878
454.5	1.14784
454.75	1.15258
455	1.15581
455.25	1.15683
455.5	1.15815
455.75	1.16031
456	1.16243
456.25	1.16486
456.5	1.16687
456.75	1.1722
457	1.17188
457.25	1.17454
457.5	1.17506
457.75	1.17634
458	1.17789
458.25	1.18457
458.5	1.18479
458.75	1.18685
459	1.18984
459.25	1.19034
459.5	1.19324
459.75	1.1944
460	1.19501
460.25	1.19449
460.5	1.19492
460.75	1.19781
461	1.19752
461.25	1.19776
461.5	1.19759
461.75	1.19363
462	1.19197
462.25	1.19211
462.5	1.19307
462.75	1.19165
463	1.18707
463.25	1.1832
463.5	1.17813
463.75	1.18048
464	1.17779
464.25	1.17678
464.5	1.17557
464.75	1.17402
465	1.17259
465.25	1.17576
465.5	1.17567
465.75	1.17523
466	1.17277
466.25	1.1724
466.5	1.17287
466.75	1.17134
467	1.17073
467.25	1.17005
467.5	1.16965
467.75	1.17203
468	1.17207
468.25	1.17233
468.5	1.17512
468.75	1.17509
469	1.17725
469.25	1.17567
469.5	1.17743
469.75	1.17956
470	1.17875
470.25	1.17946
470.5	1.18318
470.75	1.18433
471	1.18439
471.25	1.18636
471.5	1.18744
471.75	1.18643
472	1.18841
472.25	1.19078
472.5	1.19102
472.75	1.19112
473	1.18668
473.25	1.18726
473.5	1.1868
473.75	1.18807
474	1.18858
474.25	1.18337
474.5	1.18246
474.75	1.1792
475	1.17708
475.25	1.17495
475.5	1.17192
475.75	1.16835
476	1.16502
476.25	1.16306
476.5	1.16148
476.75	1.15388
477	1.15031
477.25	1.14605
477.5	1.1434
477.75	1.14226
478	1.13644
478.25	1.13445
478.5	1.13026
478.75	1.12676
479	1.12459
479.25	1.12079
479.5	1.11829
479.75	1.11665
480	1.11328
480.25	1.11235
480.5	1.10804
480.75	1.1047
481	1.09889
481.25	1.09594
481.5	1.0921
481.75	1.08842
482	1.08511
482.25	1.08171
482.5	1.08056
482.75	1.07709
483	1.07256
483.25	1.07405
483.5	1.06936
483.75	1.06518
484	1.06116
484.25	1.06068
484.5	1.05941
484.75	1.05733
485	1.05487
485.25	1.05219
485.5	1.04985
485.75	1.04556
486	1.04576
486.25	1.04446
486.5	1.04453
486.75	1.04164
487	1.04082
487.25	1.03964
487.5	1.03896
487.75	1.03745
488	1.03702
488.25	1.03343
488.5	1.03185
488.75	1.03121
489	1.02929
489.25	1.02711
489.5	1.02857
489.75	1.0316
490	1.03003
490.25	1.03299
490.5	1.03138
490.75	1.03019
491	1.0256
491.25	1.02555
491.5	1.02459
491.75	1.02412
492	1.02224
492.25	1.0204
492.5	1.0189
492.75	1.0181
493	1.01861
493.25	1.01884
493.5	1.01577
493.75	1.01359
494	1.01218
494.25	1.0107
494.5	1.01159
494.75	1.01208
495	1.01019
495.25	1.00966
495.5	1.01114
495.75	1.0095
496	1.00943
496.25	1.00889
496.5	1.00854
496.75	1.00708
497	1.00627
497.25	1.00649
497.5	1.00775
497.75	1.0072
498	1.00715
498.25	1.00727
498.5	1.00712
498.75	1.00787
499	1.0062
499.25	1.00479
499.5	1.00502
499.75	1.00504
500	1.00473
500.25	1.00639
500.5	1.00593
500.75	1.00419
501	1.00368
501.25	1.00133
501.5	1.00302
501.75	1.00436
502	1.00471
502.25	1.00408
502.5	1.00544
502.75	1.00609
503	1.00769
503.25	1.00769
503.5	1.00676
503.75	1.00797
504	1.0107
504.25	1.01099
504.5	1.01118
504.75	1.01017
505	1.01116
505.25	1.01119
505.5	1.00975
505.75	1.00998
506	1.01326
506.25	1.01057
506.5	1.01203
506.75	1.01181
507	1.01094
507.25	1.00949
507.5	1.00894
507.75	1.00735
508	1.00691
508.25	1.00525
508.5	1.00702
508.75	1.00559
509	1.00312
509.25	1.00269
509.5	1.00213
509.75	1.00487
510	1.00371
510.25	1.00236
510.5	1.00055
510.75	0.99967
511	0.99666
511.25	0.99555
511.5	0.99394
511.75	0.99348
512	0.9906
512.25	0.98978
512.5	0.98773
512.75	0.98551
513	0.98095
513.25	0.98016
513.5	0.97738
513.75	0.97435
514	0.97363
514.25	0.97224
514.5	0.9719
514.75	0.97163
515	0.96745
515.25	0.96639
515.5	0.96569
515.75	0.96535
516	0.96448
516.25	0.96357
516.5	0.96478
516.75	0.96713
517	0.96715
517.25	0.96557
517.5	0.96752
517.75	0.96715
518	0.97075
518.25	0.97229
518.5	0.97437
518.75	0.97598
519	0.97851
519.25	0.98121
519.5	0.984
519.75	0.98488
520	0.98827
520.25	0.98959
520.5	0.99482
520.75	0.9944
521	0.99623
521.25	0.9959
521.5	0.99681
521.75	0.99801
522	0.99885
522.25	1.00077
522.5	1.00112
522.75	1.00258
523	1.00382
523.25	1.0041
523.5	1.00388
523.75	1.00979
524	1.01212
524.25	1.00995
524.5	1.01045
524.75	1.01048
525	1.01226
525.25	1.01396
525.5	1.01276
525.75	1.01601
526	1.01655
526.25	1.01521
526.5	1.01488
526.75	1.01526
527	1.0129
527.25	1.01389
527.5	1.01256
527.75	1.01515
528	1.01321
528.25	1.01086
528.5	1.00975
528.75	1.01077
529	1.01145
529.25	1.01783
529.5	1.02181
529.75	1.0199
530	1.01966
530.25	1.01801
530.5	1.01763
530.75	1.01935
531	1.01724
531.25	1.01784
531.5	1.01698
531.75	1.0157
532	1.013
532.25	1.0117
532.5	1.01217
532.75	1.01126
533	1.00741
533.25	1.00333
533.5	1.00194
533.75	1.00244
534	1.00343
534.25	1.00238
534.5	1.00183
534.75	1.00199
535	1.00158
535.25	1.00172
535.5	1.00032
535.75	1.0012
536	1.00372
536.25	1.00026
536.5	0.99838
536.75	1.00143
537	0.998
537.25	0.9998
537.5	0.99786
537.75	0.99617
538	0.99691
538.25	0.99507
538.5	0.98976
538.75	0.9904
539	0.98681
539.25	0.98373
539.5	0.98074
539.75	0.97755
540	0.97211
540.25	0.96861
540.5	0.96669
540.75	0.96481
541	0.96482
541.25	0.96391
541.5	0.96449
541.75	0.96208
542	0.95973
542.25	0.95882
542.5	0.95954
542.75	0.95978
543	0.96073
543.25	0.96373
543.5	0.96209
543.75	0.96251
544	0.96054
544.25	0.96225
544.5	0.96457
544.75	0.96726
545	0.97062
545.25	0.96758
545.5	0.96932
545.75	0.96684
546	0.96717
546.25	0.96702
546.5	0.96621
546.75	0.9661
547	0.96412
547.25	0.96401
547.5	0.96376
547.75	0.96592
548	0.96463
548.25	0.96421
548.5	0.96453
548.75	0.96261
549	0.96141
549.25	0.96147
549.5	0.96126
549.75	0.95984
550	0.95824
550.25	0.95641
550.5	0.95527
550.75	0.95258
551	0.95096
551.25	0.94981
551.5	0.94949
551.75	0.94795
552	0.94702
552.25	0.94632
552.5	0.9448
552.75	0.94355
553	0.94172
553.25	0.94007
553.5	0.93946
553.75	0.93832
554	0.9385
554.25	0.93814
554.5	0.93742
554.75	0.93555
555	0.93586
555.25	0.93732
555.5	0.93707
555.75	0.93628
556	0.93155
556.25	0.93086
556.5	0.92837
556.75	0.92808
557	0.92638
557.25	0.92497
557.5	0.92356
557.75	0.92381
558	0.92378
558.25	0.92251
558.5	0.92166
558.75	0.9222
559	0.92317
559.25	0.92363
559.5	0.9233
559.75	0.92505
560	0.92339
560.25	0.92551
560.5	0.92476
560.75	0.92236
561	0.92162
561.25	0.92155
561.5	0.92086
561.75	0.92152
562	0.92324
562.25	0.92302
562.5	0.9229
562.75	0.92341
563	0.92305
563.25	0.92203
563.5	0.92112
563.75	0.92135
564	0.92064
564.25	0.92023
564.5	0.91985
564.75	0.9197
565	0.92369
565.25	0.91918
565.5	0.91861
565.75	0.91805
566	0.91722
566.25	0.9168
566.5	0.91617
566.75	0.91674
567	0.91618
567.25	0.91549
567.5	0.91367
567.75	0.91234
568	0.9114
568.25	0.90955
568.5	0.90776
568.75	0.90735
569	0.90658
569.25	0.90489
569.5	0.90444
569.75	0.904
570	0.90473
570.25	0.90299
570.5	0.90148
570.75	0.90055
571	0.902
571.25	0.90276
571.5	0.90253
571.75	0.90415
572	0.90552
572.25	0.90784
572.5	0.90696
572.75	0.90739
573	0.90965
573.25	0.90905
573.5	0.90896
573.75	0.90912
574	0.90889
574.25	0.90853
574.5	0.9082
574.75	0.90806
575	0.90856
575.25	0.90835
575.5	0.90833
575.75	0.9086
576	0.90804
576.25	0.90838
576.5	0.90902
576.75	0.90983
577	0.90891
577.25	0.9095
577.5	0.90894
577.75	0.90775
578	0.90699
578.25	0.90823
578.5	0.90882
578.75	0.9084
579	0.90519
579.25	0.90506
579.5	0.90746
579.75	0.90859
580	0.90932
580.25	0.90977
580.5	0.91096
580.75	0.91177
581	0.9106
581.25	0.91372
581.5	0.91563
581.75	0.91431
582	0.91548
582.25	0.91455
582.5	0.91374
582.75	0.91373
583	0.91359
583.25	0.91456
583.5	0.91599
583.75	0.91565
584	0.91425
584.25	0.91783
584.5	0.92332
584.75	0.92465
585	0.91386
585.25	0.89201
585.5	0.86668
585.75	0.8476
586	0.83322
586.25	0.82184
586.5	0.81378
586.75	0.80824
587	0.8049
587.25	0.8028
587.5	0.80095
587.75	0.7995
588	0.79888
588.25	0.7985
588.5	0.79844
588.75	0.79794
589	0.79876
589.25	0.79884
589.5	0.79852
589.75	0.79864
590	0.79853
590.25	0.79834
590.5	0.79743
590.75	0.79632
591	0.79455
591.25	0.79215
591.5	0.78805
591.75	0.78465
592	0.78296
592.25	0.78135
592.5	0.78202
592.75	0.78306
593	0.7846
593.25	0.78721
593.5	0.78989
593.75	0.79278
594	0.79552
594.25	0.7964
594.5	0.79662
594.75	0.79671
595	0.79693
595.25	0.7973
595.5	0.79763
595.75	0.79721
596	0.79631
596.25	0.79538
596.5	0.7942
596.75	0.794
597	0.79384
597.25	0.79338
597.5	0.79311
597.75	0.7928
598	0.79191
598.25	0.79089
598.5	0.79053
598.75	0.79005
599	0.78939
599.25	0.7881
599.5	0.78714
599.75	0.78546
600	0.78363
600.25	0.78178
600.5	0.77925
600.75	0.77663
601	0.77402
601.25	0.77131
601.5	0.76935
601.75	0.76774
602	0.76743
602.25	0.76777
602.5	0.76777
602.75	0.76889
603	0.7702
603.25	0.77074
603.5	0.772
603.75	0.77273
604	0.77377
604.25	0.77407
604.5	0.77485
604.75	0.77498
605	0.77543
605.25	0.77534
605.5	0.77505
605.75	0.77372
606	0.77282
606.25	0.7719
606.5	0.77114
606.75	0.77084
607	0.77105
607.25	0.77113
607.5	0.77141
607.75	0.77046
608	0.76962
608.25	0.76908
608.5	0.76855
608.75	0.76797
609	0.76752
609.25	0.76745
609.5	0.7667
609.75	0.76573
610	0.76464
610.25	0.76302
610.5	0.76138
610.75	0.7606
611	0.76018
611.25	0.76023
611.5	0.76064
611.75	0.76162
612	0.76209
612.25	0.76194
612.5	0.76279
612.75	0.76413
613	0.76521
613.25	0.76702
613.5	0.76822
613.75	0.76946
614	0.77059
614.25	0.77116
614.5	0.77156
614.75	0.77159
615	0.7708
615.25	0.77016
615.5	0.76834
615.75	0.76618
616	0.76287
616.25	0.76005
616.5	0.75885
616.75	0.75803
617	0.75761
617.25	0.75774
617.5	0.75821
617.75	0.75937
618	0.76103
618.25	0.76163
618.5	0.76284
618.75	0.76318
619	0.76304
619.25	0.76213
619.5	0.76165
619.75	0.76028
620	0.7599
620.25	0.75897
620.5	0.75937
620.75	0.75787
621	0.75588
621.25	0.75438
621.5	0.75431
621.75	0.75415
622	0.75271
622.25	0.75006
622.5	0.74741
622.75	0.74442
623	0.74195
623.25	0.73967
623.5	0.73831
623.75	0.73743
624	0.737
624.25	0.73738
624.5	0.73859
624.75	0.7402
625	0.7415
625.25	0.74197
625.5	0.74281
625.75	0.74385
626	0.74438
626.25	0.74448
626.5	0.74455
626.75	0.74512
627	0.74524
627.25	0.74633
627.5	0.7471
627.75	0.74871
628	0.75106
628.25	0.7545
628.5	0.75801
628.75	0.76281
629	0.76652
629.25	0.76966
629.5	0.77279
629.75	0.77546
630	0.77906
630.25	0.78201
630.5	0.78526
630.75	0.78895
631	0.79164
631.25	0.79469
631.5	0.79681
631.75	0.79771
632	0.79829
632.25	0.79754
632.5	0.79635
632.75	0.79179
633	0.78486
633.25	0.7778
633.5	0.77274
633.75	0.76907
634	0.7669
634.25	0.76668
634.5	0.7715
634.75	0.77501
635	0.77661
635.25	0.7782
635.5	0.77954
635.75	0.78086
636	0.78318
636.25	0.78615
636.5	0.78906
636.75	0.79138
637	0.79396
637.25	0.79797
637.5	0.8022
637.75	0.80633
638	0.80956
638.25	0.81063
638.5	0.81687
638.75	0.81867
639	0.82152
639.25	0.82538
639.5	0.83153
639.75	0.83929
640	0.84768
640.25	0.85609
640.5	0.86405
640.75	0.86998
641	0.87372
641.25	0.87694
641.5	0.88049
641.75	0.88332
642	0.88998
642.25	0.89916
642.5	0.90844
642.75	0.91705
643	0.92319
643.25	0.92668
643.5	0.92903
643.75	0.93169
644	0.93369
644.25	0.93471
644.5	0.93465
644.75	0.93274
645	0.9332
645.25	0.93316
645.5	0.9314
645.75	0.92891
646	0.92449
646.25	0.92011
646.5	0.91291
646.75	0.89461
647	0.87209
647.25	0.86185
647.5	0.85662
647.75	0.85374
648	0.85205
648.25	0.85073
648.5	0.84466
648.75	0.83599
649	0.82679
649.25	0.81647
649.5	0.8078
649.75	0.79906
650	0.79066
650.25	0.78188
650.5	0.77381
650.75	0.76732
651	0.76284
651.25	0.76016
651.5	0.75811
651.75	0.75594
652	0.75396
652.25	0.75154
652.5	0.7498
652.75	0.74825
653	0.74664
653.25	0.74486
653.5	0.7432
653.75	0.74188
654	0.74141
654.25	0.74217
654.5	0.74245
654.75	0.74263
655	0.74172
655.25	0.73998
655.5	0.73773
655.75	0.7352
656	0.73318
656.25	0.73097
656.5	0.72994
656.75	0.73011
657	0.72965
657.25	0.72996
657.5	0.72965
657.75	0.72915
658	0.72849
658.25	0.72804
658.5	0.7279
658.75	0.72813
659	0.72798
659.25	0.72834
659.5	0.72869
659.75	0.72911
660	0.7296
660.25	0.72944
660.5	0.72909
660.75	0.72864
661	0.7283
661.25	0.7279
661.5	0.72719
661.75	0.72607
662	0.72416
662.25	0.72197
662.5	0.7206
662.75	0.71896
663	0.7174
663.25	0.71595
663.5	0.7145
663.75	0.71309
664	0.71127
664.25	0.70999
664.5	0.70914
664.75	0.70852
665	0.70808
665.25	0.70761
665.5	0.70702
665.75	0.70729
666	0.70758
666.25	0.70832
666.5	0.70876
666.75	0.70933
667	0.70956
667.25	0.71014
667.5	0.71042
667.75	0.71104
668	0.71054
668.25	0.71083
668.5	0.71041
668.75	0.7104
669	0.71034
669.25	0.71053
669.5	0.71051
669.75	0.71039
670	0.71118
670.25	0.71118
670.5	0.71102
670.75	0.71136
671	0.71214
671.25	0.71213
671.5	0.71317
671.75	0.71379
672	0.71429
672.25	0.71504
672.5	0.71533
672.75	0.71547
673	0.71528
673.25	0.71609
673.5	0.7171
673.75	0.71742
674	0.71788
674.25	0.71828
674.5	0.71878
674.75	0.71793
675	0.71767